# Kurucz ODFNEW /NOVER models
# teff = 45000 K (value for the effective temperature for the model. Temperatures are given in K)
# logg = 4.50 log(cm/s2) (value for Log(G) for the model.)
# meta = -0.5  (value for the Metallicity for the model.)
# lh = 1.25  (l/Hp where l is the  mixing length of the convective element and Hp is the pressure scale height)
# vtur = 2.0 km/s (Microturbulence velocity)
#
# column 1: WAVELENGTH (ANGSTROM), Wavelength in Angstrom
# column 2: FLUX (ERG/CM2/S/A), Flux in erg/cm2/s/A
              0               0 
           90.9      3.65633e-5 
           93.5     0.000101993 
           96.1     0.000265822 
           97.7     0.000475744 
           99.6     0.000914925 
            102      0.00201839 
          103.8      0.00357029 
          105.6      0.00619383 
          107.7       0.0115072 
          110.4       0.0246488 
            114       0.0643451 
          117.8        0.166405 
          121.3        0.379888 
          124.8        0.826675 
          127.1          1.3476 
          128.4         1.76801 
          130.5         2.69282 
          132.4         3.90018 
          133.9         5.19378 
          136.6         8.52448 
          139.8         15.1249 
          143.3         27.2913 
          147.2         50.0336 
            151         91.6768 
          155.2         169.041 
          158.8         279.379 
            162         438.399 
            166         737.382 
          170.3         1233.16 
          173.4         1766.78 
          176.8         2626.66 
          180.2          3821.6 
          181.7         4393.67 
          186.1         7075.73 
            191         11460.6 
          193.9         15275.7 
          198.4         23044.5 
          201.8         30890.9 
            205         41072.5 
          210.5         64761.5 
          216.2          100924 
          219.8          133328 
            223          167581 
          226.8          217506 
            230      4.88326e+7 
            234      2.88485e+8 
            240      8.77795e+8 
          246.5      3.51749e+9 
          252.4     1.14724e+10 
          256.8     1.64034e+10 
            260     2.11242e+10 
            264     5.60318e+10 
          268.5     6.76305e+10 
          273.5     7.78015e+10 
          278.5     5.87908e+10 
            284     1.00549e+11 
            290     1.29911e+11 
            296     1.03143e+11 
            301     4.68414e+10 
            308     7.29164e+10 
            318       4.133e+10 
            328     5.08907e+10 
            338     3.60165e+10 
            348     3.66421e+10 
            357     7.99846e+10 
            366     1.30209e+11 
            375     1.53545e+11 
            385     1.31114e+11 
            395     1.88528e+11 
            405     2.41943e+11 
            414      2.4055e+11 
            422     2.24937e+11 
            430     2.10512e+11 
            441     2.45722e+11 
            451      2.4943e+11 
            460     2.22513e+11 
            470     2.29534e+11 
            480     2.46902e+11 
            490     2.10348e+11 
            500     2.53871e+11 
            506     2.14927e+11 
            512     2.63164e+11 
            520     2.47856e+11 
            530     2.30223e+11 
            540     1.98197e+11 
            550     1.73458e+11 
            560     2.16812e+11 
            570     2.30317e+11 
            580     2.24202e+11 
            590     2.22867e+11 
            600     2.00818e+11 
            610     1.79142e+11 
            620     2.10632e+11 
            630     1.94421e+11 
            640     2.08002e+11 
            650     1.95909e+11 
            658     1.79758e+11 
            665       1.958e+11 
            675     1.95664e+11 
            685     1.78343e+11 
            695     1.87536e+11 
            705      1.6993e+11 
            716     1.80959e+11 
            726     1.80297e+11 
            735     1.76961e+11 
            745     1.69385e+11 
            755     1.64445e+11 
            765     1.51947e+11 
            775     1.57943e+11 
            785     1.46174e+11 
            795     1.51127e+11 
            805     1.50099e+11 
            815     1.47907e+11 
            825     1.45854e+11 
            835      1.3352e+11 
            845     1.39201e+11 
            855     1.33284e+11 
            865     1.34867e+11 
            875     1.32909e+11 
            885     1.28994e+11 
            895     1.26659e+11 
            905     1.22482e+11 
            915     9.38827e+10 
            925     1.48803e+11 
            935     1.85283e+11 
            945     2.05074e+11 
            955     2.22921e+11 
            965     2.33156e+11 
            975       1.875e+11 
            985     2.12815e+11 
            995     1.93536e+11 
           1005     1.96798e+11 
           1015     1.96365e+11 
           1025     1.75391e+11 
           1035     1.95957e+11 
           1045     1.95509e+11 
           1055     1.90784e+11 
           1065     1.81306e+11 
           1075     1.81202e+11 
           1085     1.69944e+11 
           1095     1.72739e+11 
           1105     1.67828e+11 
           1115     1.63892e+11 
           1125     1.57666e+11 
           1135     1.58319e+11 
           1145     1.55571e+11 
           1155     1.49317e+11 
           1165     1.43023e+11 
           1175     1.31356e+11 
           1185     1.36546e+11 
           1195     1.31582e+11 
           1205     1.29204e+11 
           1215      1.1034e+11 
           1225     1.22946e+11 
           1235      1.1836e+11 
           1245      1.1503e+11 
           1255     1.15701e+11 
           1265     1.13945e+11 
           1275      1.1191e+11 
           1285     1.09748e+11 
           1295     1.07974e+11 
           1305      1.0412e+11 
           1315     1.02325e+11 
           1325     9.98591e+10 
           1335     9.81236e+10 
           1345     9.62304e+10 
           1355     9.24638e+10 
           1365     8.87647e+10 
           1375      8.5657e+10 
           1385     8.55578e+10 
           1395     8.29862e+10 
           1405     7.93814e+10 
           1415     8.24067e+10 
           1425     7.86568e+10 
           1435     7.90553e+10 
           1442     7.61518e+10 
           1447     7.57543e+10 
           1455     7.39375e+10 
           1465     7.29563e+10 
           1475     7.19565e+10 
           1485     7.16057e+10 
           1495     6.97002e+10 
           1505     6.86522e+10 
           1512     6.81335e+10 
           1517     6.65063e+10 
           1525     6.61051e+10 
           1535     6.29204e+10 
           1545     5.68655e+10 
           1555     5.67147e+10 
           1565     5.88732e+10 
           1575      5.8875e+10 
           1585     5.75017e+10 
           1595     5.67429e+10 
           1605     5.46342e+10 
           1615     5.33921e+10 
           1625     5.26627e+10 
           1635     5.17811e+10 
           1645     4.92124e+10 
           1655     5.08094e+10 
           1665      5.0042e+10 
           1672      4.8206e+10 
           1677     4.95827e+10 
           1685     4.88104e+10 
           1695     4.80906e+10 
           1705     4.68078e+10 
           1715     4.49991e+10 
           1725      4.4565e+10 
           1735     4.48151e+10 
           1745     4.39106e+10 
           1755     4.29591e+10 
           1765     4.23274e+10 
           1775     4.15827e+10 
           1785     4.10377e+10 
           1795     4.00544e+10 
           1805     3.94059e+10 
           1815     3.86849e+10 
           1825     3.80053e+10 
           1835     3.74288e+10 
           1845     3.68271e+10 
           1855     3.61388e+10 
           1865     3.55521e+10 
           1875     3.48524e+10 
           1885       3.423e+10 
           1895      3.3914e+10 
           1905     3.33471e+10 
           1915     3.27736e+10 
           1925     3.17558e+10 
           1935     3.17072e+10 
           1945     3.11889e+10 
           1955     3.05375e+10 
           1967     3.00239e+10 
           1976     2.95319e+10 
           1984     2.92253e+10 
           1995     2.86626e+10 
           2005     2.82349e+10 
           2015     2.77689e+10 
           2025     2.73207e+10 
           2035     2.68446e+10 
           2045     2.62953e+10 
           2055     2.01406e+10 
           2065     1.93806e+10 
           2074     1.97654e+10 
           2078     2.02303e+10 
           2085     2.16312e+10 
           2095     2.36844e+10 
           2105     2.38688e+10 
           2115     2.36529e+10 
           2125     2.32339e+10 
           2135     2.29044e+10 
           2145     2.25579e+10 
           2155      2.2555e+10 
           2165      2.1496e+10 
           2175     2.19932e+10 
           2185     2.10372e+10 
           2195     2.13542e+10 
           2205      2.1037e+10 
           2215     2.00704e+10 
           2225     2.04056e+10 
           2235     2.01087e+10 
           2245     1.97902e+10 
           2255     1.89416e+10 
           2265     1.92036e+10 
           2275     1.89478e+10 
           2285     1.86041e+10 
           2295     1.81741e+10 
           2305     1.75828e+10 
           2315     1.77707e+10 
           2325     1.75743e+10 
           2335     1.73211e+10 
           2345     1.70401e+10 
           2355     1.67789e+10 
           2365     1.65309e+10 
           2375     1.62637e+10 
           2385     1.55256e+10 
           2395     1.57305e+10 
           2405      1.5516e+10 
           2415     1.53167e+10 
           2425     1.51727e+10 
           2435     1.49352e+10 
           2445     1.47326e+10 
           2455     1.44703e+10 
           2465     1.43129e+10 
           2475     1.41458e+10 
           2485     1.39108e+10 
           2495      1.3184e+10 
           2505     1.35076e+10 
           2513     1.25967e+10 
           2518     1.31481e+10 
           2525     1.30859e+10 
           2535     1.30063e+10 
           2545     1.28415e+10 
           2555     1.26604e+10 
           2565     1.24971e+10 
           2575     1.23207e+10 
           2585     1.21551e+10 
           2595      1.1896e+10 
           2605     1.18381e+10 
           2615     1.16321e+10 
           2625     1.15294e+10 
           2635     1.13797e+10 
           2645     1.12157e+10 
           2655      1.1079e+10 
           2665     1.09308e+10 
           2675     1.07386e+10 
           2685     1.06389e+10 
           2695     1.04891e+10 
           2705     1.03828e+10 
           2715     1.02416e+10 
           2725     1.01087e+10 
           2735      9.71259e+9 
           2745      9.85945e+9 
           2755      9.72695e+9 
           2765      9.60499e+9 
           2775      9.47962e+9 
           2785      9.34414e+9 
           2795      9.22195e+9 
           2805       9.1252e+9 
           2815      9.01197e+9 
           2825      8.88882e+9 
           2835      8.79105e+9 
           2845      8.68703e+9 
           2855       8.5782e+9 
           2865       8.4629e+9 
           2875      8.35627e+9 
           2885      8.26267e+9 
           2895      8.16119e+9 
           2910      8.01366e+9 
           2930      7.82563e+9 
           2950      7.63634e+9 
           2970      7.44714e+9 
           2990      7.25684e+9 
           3010      7.09294e+9 
           3030      6.90809e+9 
           3050      6.75825e+9 
           3070      6.59453e+9 
           3090       6.4641e+9 
           3110      6.31618e+9 
           3130       6.1688e+9 
           3150      6.03983e+9 
           3170      5.89977e+9 
           3190      5.77121e+9 
           3210      5.55767e+9 
           3230      5.52299e+9 
           3250      5.40208e+9 
           3270      5.25728e+9 
           3290      5.16467e+9 
           3310      5.05123e+9 
           3330      4.94385e+9 
           3350      4.82489e+9 
           3370      4.73396e+9 
           3390      4.63107e+9 
           3410      4.53025e+9 
           3430      4.44523e+9 
           3450      4.34288e+9 
           3470      4.26074e+9 
           3490      4.17338e+9 
           3510      4.09172e+9 
           3530      4.00496e+9 
           3550       3.9241e+9 
           3570      3.84568e+9 
           3590      3.76785e+9 
           3610      3.69152e+9 
           3630       3.6158e+9 
           3640      3.51096e+9 
           3650      3.18407e+9 
           3670       3.1257e+9 
           3690      3.07725e+9 
           3710      3.04826e+9 
           3730      3.04301e+9 
           3750       3.0583e+9 
           3770      3.06094e+9 
           3790      3.07119e+9 
           3810      3.07305e+9 
           3830      2.92572e+9 
           3850      2.99503e+9 
           3870      2.96768e+9 
           3890      2.74181e+9 
           3910      2.86932e+9 
           3930      2.79482e+9 
           3950       2.7649e+9 
           3970      2.53609e+9 
           3990      2.66502e+9 
           4010      2.62374e+9 
           4030       2.5349e+9 
           4050      2.53198e+9 
           4070      2.48509e+9 
           4090      2.39396e+9 
           4110      2.25854e+9 
           4130      2.35201e+9 
           4150      2.31255e+9 
           4170      2.27309e+9 
           4190      2.22505e+9 
           4210      2.16421e+9 
           4230      2.15664e+9 
           4250      2.11907e+9 
           4270      2.08254e+9 
           4290      2.04685e+9 
           4310      2.00966e+9 
           4330      1.92839e+9 
           4350      1.84565e+9 
           4370      1.90702e+9 
           4390      1.87305e+9 
           4410       1.8432e+9 
           4430      1.81463e+9 
           4450      1.78374e+9 
           4470      1.74757e+9 
           4490        1.726e+9 
           4510      1.69596e+9 
           4530      1.66668e+9 
           4550       1.6154e+9 
           4570      1.61555e+9 
           4590      1.58951e+9 
           4610      1.56426e+9 
           4630      1.53587e+9 
           4650       1.5014e+9 
           4670      1.48818e+9 
           4690      1.41936e+9 
           4710      1.44272e+9 
           4730      1.42162e+9 
           4750      1.39932e+9 
           4770      1.37735e+9 
           4790      1.35543e+9 
           4810      1.33482e+9 
           4830      1.31353e+9 
           4850      1.27199e+9 
           4870       1.2023e+9 
           4890      1.25295e+9 
           4910      1.23531e+9 
           4930      1.21442e+9 
           4950      1.19843e+9 
           4970      1.18037e+9 
           4990      1.16282e+9 
           5010      1.14383e+9 
           5030      1.12817e+9 
           5050      1.11116e+9 
           5070      1.09508e+9 
           5090      1.07909e+9 
           5110       1.0633e+9 
           5130      1.04762e+9 
           5150      1.03239e+9 
           5170      1.01754e+9 
           5190      1.00279e+9 
           5210      9.88275e+8 
           5230      9.74203e+8 
           5250      9.59905e+8 
           5270      9.46055e+8 
           5290       9.3314e+8 
           5310      9.19937e+8 
           5330      9.06893e+8 
           5350       8.9423e+8 
           5370      8.81687e+8 
           5390      8.69347e+8 
           5410      8.42351e+8 
           5430       8.4537e+8 
           5450      8.33771e+8 
           5470      8.22211e+8 
           5490      8.11005e+8 
           5510      7.99669e+8 
           5530      7.89042e+8 
           5550      7.78336e+8 
           5570      7.67574e+8 
           5590      7.56304e+8 
           5610      7.47269e+8 
           5630      7.37253e+8 
           5650      7.27416e+8 
           5670      7.17733e+8 
           5690       6.9878e+8 
           5710      6.52642e+8 
           5730      6.44332e+8 
           5750      6.36133e+8 
           5770      6.28302e+8 
           5790      6.20888e+8 
           5810      6.12257e+8 
           5830      6.08276e+8 
           5850       6.0323e+8 
           5870      5.95838e+8 
           5890      5.94078e+8 
           5910      5.90204e+8 
           5930      5.86829e+8 
           5950      5.84092e+8 
           5970      5.81232e+8 
           5990      5.78869e+8 
           6010       5.7326e+8 
           6030      5.67258e+8 
           6050        5.617e+8 
           6070      5.54037e+8 
           6090      5.48132e+8 
           6110      5.40622e+8 
           6130      5.33972e+8 
           6150      5.28354e+8 
           6170      5.19708e+8 
           6190      5.15313e+8 
           6210      5.09206e+8 
           6230      5.00662e+8 
           6250      4.96381e+8 
           6270      4.90853e+8 
           6290      4.84947e+8 
           6310      4.75888e+8 
           6330       4.7315e+8 
           6350      4.67688e+8 
           6370      4.62109e+8 
           6390       4.5638e+8 
           6410      4.47338e+8 
           6430      4.45854e+8 
           6450      4.40557e+8 
           6470      4.35365e+8 
           6490      4.30313e+8 
           6510      4.24998e+8 
           6530      4.15551e+8 
           6550      4.11129e+8 
           6570       3.8559e+8 
           6590      4.05322e+8 
           6610      4.01209e+8 
           6630      3.96607e+8 
           6650       3.9206e+8 
           6670       3.8631e+8 
           6690      3.77807e+8 
           6710      3.78629e+8 
           6730      3.74486e+8 
           6750      3.70235e+8 
           6770      3.66113e+8 
           6790       3.6202e+8 
           6810      3.57964e+8 
           6830      3.53965e+8 
           6850      3.50023e+8 
           6870      3.46128e+8 
           6890      3.37509e+8 
           6910       3.3837e+8 
           6930      3.34793e+8 
           6950      3.31115e+8 
           6970      3.27487e+8 
           6990      3.23905e+8 
           7010      3.20343e+8 
           7030      3.16776e+8 
           7050      3.13406e+8 
           7070      3.09335e+8 
           7090      3.06733e+8 
           7110      3.03405e+8 
           7130      3.00143e+8 
           7150       2.9697e+8 
           7170      2.90882e+8 
           7190      2.89062e+8 
           7210      2.87598e+8 
           7230      2.84554e+8 
           7250      2.81552e+8 
           7270      2.78587e+8 
           7290      2.75487e+8 
           7310      2.72726e+8 
           7330      2.69929e+8 
           7350      2.67116e+8 
           7370      2.64323e+8 
           7390      2.61576e+8 
           7410      2.58876e+8 
           7430      2.56236e+8 
           7450      2.53525e+8 
           7470      2.50994e+8 
           7490      2.48326e+8 
           7510      2.45863e+8 
           7530      2.43389e+8 
           7550      2.40918e+8 
           7570       2.3847e+8 
           7590      2.32409e+8 
           7610      2.33478e+8 
           7630      2.31337e+8 
           7650      2.29009e+8 
           7670      2.26728e+8 
           7690       2.2439e+8 
           7710      2.22195e+8 
           7730      2.19924e+8 
           7750      2.17843e+8 
           7770      2.15694e+8 
           7790      2.13569e+8 
           7810       2.1147e+8 
           7830      2.09396e+8 
           7850      2.07291e+8 
           7870      2.05302e+8 
           7890      2.03319e+8 
           7910      2.01352e+8 
           7930      1.99403e+8 
           7950      1.97477e+8 
           7970      1.95527e+8 
           7990      1.93694e+8 
           8010      1.91835e+8 
           8030      1.89969e+8 
           8050      1.88184e+8 
           8070       1.8639e+8 
           8090      1.84618e+8 
           8110      1.82866e+8 
           8130      1.81136e+8 
