# Kurucz ODFNEW /NOVER models
# teff = 41000 K (value for the effective temperature for the model. Temperatures are given in K)
# logg = 5.00 log(cm/s2) (value for Log(G) for the model.)
# meta = -0.5  (value for the Metallicity for the model.)
# lh = 1.25  (l/Hp where l is the  mixing length of the convective element and Hp is the pressure scale height)
# vtur = 2.0 km/s (Microturbulence velocity)
#
# column 1: WAVELENGTH (ANGSTROM), Wavelength in Angstrom
# column 2: FLUX (ERG/CM2/S/A), Flux in erg/cm2/s/A
              0               0 
           90.9      5.21591e-8 
           93.5      1.67037e-7 
           96.1      5.01547e-7 
           97.7       9.6597e-7 
           99.6      2.04103e-6 
            102      5.05927e-6 
          103.8      9.75495e-6 
          105.6      1.84271e-5 
          107.7      3.77598e-5 
          110.4      9.15911e-5 
            114     0.000281449 
          117.8     0.000862905 
          121.3       0.0022932 
          124.8      0.00580368 
          127.1       0.0104238 
          128.4       0.0143864 
          130.5       0.0239131 
          132.4       0.0374072 
          133.9       0.0528516 
          136.6       0.0967026 
          139.8        0.193164 
          143.3        0.397702 
          147.2        0.851665 
            151         1.75089 
          155.2         3.70897 
          158.8         6.85386 
            162         11.5792 
            166         21.7759 
          170.3         41.4502 
          173.4          64.736 
          176.8         103.973 
          180.2         163.874 
          181.7         198.527 
          186.1         347.696 
            191         627.631 
          193.9         878.988 
          198.4         1451.79 
          201.8         2087.95 
            205         2914.25 
          210.5         5043.53 
          216.2         8625.51 
          219.8         11976.7 
            223         15849.8 
          226.8         21827.5 
            230      6.46772e+6 
            234      2.90254e+7 
            240      5.40955e+7 
          246.5       9.8978e+7 
          252.4      2.21169e+8 
          256.8       2.9185e+8 
            260      5.86496e+8 
            264      3.44429e+9 
          268.5      5.07746e+9 
          273.5      6.16904e+9 
          278.5      4.17767e+9 
            284      9.30709e+9 
            290     1.19644e+10 
            296       7.9847e+9 
            301      3.77271e+9 
            308     1.32724e+10 
            318     1.15294e+10 
            328     1.57539e+10 
            338     1.34588e+10 
            348     1.47026e+10 
            357     2.89418e+10 
            366     4.46937e+10 
            375     5.12246e+10 
            385      4.7551e+10 
            395     6.26866e+10 
            405     7.44067e+10 
            414     7.24661e+10 
            422     6.93216e+10 
            430      6.4313e+10 
            441     7.08128e+10 
            451     7.27306e+10 
            460     6.50589e+10 
            470     6.49872e+10 
            480     6.94187e+10 
            490     6.03929e+10 
            500     6.88905e+10 
            506     6.92116e+10 
            512     1.29215e+11 
            520     1.19616e+11 
            530     1.10494e+11 
            540     9.79332e+10 
            550      9.4586e+10 
            560     1.16623e+11 
            570     1.19559e+11 
            580      1.1331e+11 
            590     1.14404e+11 
            600     1.01708e+11 
            610     1.01376e+11 
            620      1.1543e+11 
            630     1.10333e+11 
            640     1.13626e+11 
            650     1.08498e+11 
            658      9.9559e+10 
            665     1.07271e+11 
            675      1.1045e+11 
            685     9.93239e+10 
            695     1.05924e+11 
            705     9.56257e+10 
            716     1.05217e+11 
            726     1.04211e+11 
            735     1.03767e+11 
            745     9.90247e+10 
            755     9.70401e+10 
            765     9.29554e+10 
            775      9.4166e+10 
            785     9.10913e+10 
            795     9.20033e+10 
            805     9.03652e+10 
            815     8.97552e+10 
            825     8.93139e+10 
            835     8.07575e+10 
            845     8.58273e+10 
            855     8.34859e+10 
            865     8.40693e+10 
            875     8.29805e+10 
            885     8.13802e+10 
            895     8.01786e+10 
            905     7.79011e+10 
            915     6.16961e+10 
            925     1.01674e+11 
            935     1.36109e+11 
            945     1.71026e+11 
            955     1.88261e+11 
            965     2.16489e+11 
            975     1.49765e+11 
            985     1.98538e+11 
            995     1.77987e+11 
           1005     1.83023e+11 
           1015     1.84104e+11 
           1025     1.43374e+11 
           1035     1.79431e+11 
           1045       1.838e+11 
           1055     1.78772e+11 
           1065     1.67662e+11 
           1075     1.66725e+11 
           1085     1.52497e+11 
           1095     1.59669e+11 
           1105     1.53207e+11 
           1115     1.49919e+11 
           1125     1.41018e+11 
           1135     1.44007e+11 
           1145     1.40753e+11 
           1155     1.33641e+11 
           1165     1.28242e+11 
           1175     1.11394e+11 
           1185     1.19802e+11 
           1195     1.16558e+11 
           1205     1.12911e+11 
           1215     8.78956e+10 
           1225     1.06515e+11 
           1235     1.07161e+11 
           1245     1.04569e+11 
           1255     1.03809e+11 
           1265     1.02979e+11 
           1275     1.01706e+11 
           1285     1.00063e+11 
           1295     9.68656e+10 
           1305     9.44733e+10 
           1315     9.38218e+10 
           1325     9.12478e+10 
           1335      8.9387e+10 
           1345     8.79441e+10 
           1355     8.47795e+10 
           1365     8.20031e+10 
           1375     7.95634e+10 
           1385     7.82183e+10 
           1395     7.46696e+10 
           1405     7.19367e+10 
           1415     7.42688e+10 
           1425     6.95698e+10 
           1435     7.07183e+10 
           1442     6.89753e+10 
           1447     6.83827e+10 
           1455     6.63747e+10 
           1465     6.56261e+10 
           1475     6.43079e+10 
           1485     6.41112e+10 
           1495     6.22282e+10 
           1505     6.16199e+10 
           1512     6.09997e+10 
           1517     5.98895e+10 
           1525     5.87767e+10 
           1535     5.50188e+10 
           1545     4.92331e+10 
           1555     4.92907e+10 
           1565     5.10747e+10 
           1575     5.14228e+10 
           1585     5.07687e+10 
           1595     5.00378e+10 
           1605     4.76349e+10 
           1615     4.61743e+10 
           1625     4.58575e+10 
           1635     4.48894e+10 
           1645     4.30088e+10 
           1655     4.47314e+10 
           1665     4.38764e+10 
           1672     4.18723e+10 
           1677     4.40731e+10 
           1685     4.30877e+10 
           1695     4.23199e+10 
           1705      4.1238e+10 
           1715     3.98118e+10 
           1725     3.90567e+10 
           1735     3.94824e+10 
           1745       3.878e+10 
           1755     3.78071e+10 
           1765     3.73353e+10 
           1775      3.6617e+10 
           1785     3.62563e+10 
           1795     3.53132e+10 
           1805     3.47957e+10 
           1815      3.4179e+10 
           1825     3.34853e+10 
           1835     3.31484e+10 
           1845     3.25122e+10 
           1855     3.19612e+10 
           1865     3.14287e+10 
           1875     3.07332e+10 
           1885     3.01684e+10 
           1895     2.99735e+10 
           1905     2.95569e+10 
           1915     2.90189e+10 
           1925     2.79231e+10 
           1935     2.81112e+10 
           1945     2.76914e+10 
           1955     2.69052e+10 
           1967     2.66256e+10 
           1976     2.62524e+10 
           1984     2.59397e+10 
           1995     2.54225e+10 
           2005     2.51002e+10 
           2015     2.46865e+10 
           2025     2.42724e+10 
           2035     2.38516e+10 
           2045     2.34099e+10 
           2055     1.76678e+10 
           2065     1.68574e+10 
           2074     1.70075e+10 
           2078     1.72806e+10 
           2085     1.81275e+10 
           2095     1.99505e+10 
           2105     2.10674e+10 
           2115      2.1048e+10 
           2125     2.06326e+10 
           2135     2.03596e+10 
           2145     2.00646e+10 
           2155     2.00281e+10 
           2165      1.9043e+10 
           2175     1.95826e+10 
           2185     1.85989e+10 
           2195      1.9017e+10 
           2205     1.87628e+10 
           2215      1.7713e+10 
           2225     1.81888e+10 
           2235      1.7945e+10 
           2245     1.76151e+10 
           2255     1.66879e+10 
           2265     1.71276e+10 
           2275     1.68988e+10 
           2285     1.65679e+10 
           2295     1.60433e+10 
           2305     1.54882e+10 
           2315     1.58165e+10 
           2325     1.56571e+10 
           2335      1.5432e+10 
           2345     1.51849e+10 
           2355     1.49441e+10 
           2365     1.47197e+10 
           2375     1.44644e+10 
           2385     1.36559e+10 
           2395     1.39651e+10 
           2405     1.38453e+10 
           2415     1.36624e+10 
           2425      1.3516e+10 
           2435     1.33061e+10 
           2445     1.31231e+10 
           2455     1.29033e+10 
           2465      1.2756e+10 
           2475     1.25941e+10 
           2485     1.23868e+10 
           2495     1.14423e+10 
           2505     1.19647e+10 
           2513     1.10296e+10 
           2518     1.16299e+10 
           2525     1.16778e+10 
           2535     1.15771e+10 
           2545     1.14211e+10 
           2555     1.12563e+10 
           2565     1.11097e+10 
           2575     1.09583e+10 
           2585     1.08127e+10 
           2595     1.06087e+10 
           2605     1.05302e+10 
           2615     1.03628e+10 
           2625     1.02544e+10 
           2635      1.0122e+10 
           2645      9.97718e+9 
           2655       9.8546e+9 
           2665      9.71447e+9 
           2675      9.53985e+9 
           2685      9.45845e+9 
           2695      9.32358e+9 
           2705      9.23055e+9 
           2715      9.09879e+9 
           2725      8.97024e+9 
           2735      8.57287e+9 
           2745       8.7635e+9 
           2755      8.64988e+9 
           2765      8.52535e+9 
           2775       8.4322e+9 
           2785      8.31492e+9 
           2795      8.17597e+9 
           2805      8.10723e+9 
           2815       8.0136e+9 
           2825      7.89845e+9 
           2835      7.80812e+9 
           2845      7.72496e+9 
           2855      7.62747e+9 
           2865      7.52569e+9 
           2875       7.4374e+9 
           2885      7.34791e+9 
           2895      7.25498e+9 
           2910      7.11854e+9 
           2930      6.95501e+9 
           2950       6.7766e+9 
           2970      6.61732e+9 
           2990      6.44353e+9 
           3010      6.29789e+9 
           3030      6.13255e+9 
           3050      6.00137e+9 
           3070      5.87066e+9 
           3090      5.74007e+9 
           3110      5.61077e+9 
           3130      5.48123e+9 
           3150      5.36479e+9 
           3170      5.24067e+9 
           3190      5.11668e+9 
           3210      4.92955e+9 
           3230      4.90661e+9 
           3250      4.80076e+9 
           3270      4.67032e+9 
           3290      4.58832e+9 
           3310      4.48798e+9 
           3330      4.39211e+9 
           3350       4.2861e+9 
           3370      4.20555e+9 
           3390      4.12032e+9 
           3410       4.0326e+9 
           3430      3.95369e+9 
           3450      3.85956e+9 
           3470      3.79079e+9 
           3490      3.71344e+9 
           3510      3.63792e+9 
           3530      3.56084e+9 
           3550      3.48707e+9 
           3570      3.42237e+9 
           3590      3.34694e+9 
           3610      3.28048e+9 
           3630       3.2121e+9 
           3640       3.1322e+9 
           3650      2.86567e+9 
           3670       2.8141e+9 
           3690      2.76431e+9 
           3710      2.71792e+9 
           3730      2.70228e+9 
           3750      2.69424e+9 
           3770      2.67713e+9 
           3790      2.70167e+9 
           3810      2.73021e+9 
           3830      2.55695e+9 
           3850       2.6814e+9 
           3870      2.66885e+9 
           3890      2.38579e+9 
           3910      2.59185e+9 
           3930      2.53944e+9 
           3950      2.49568e+9 
           3970      2.20236e+9 
           3990      2.40543e+9 
           4010      2.37517e+9 
           4030       2.2812e+9 
           4050       2.3023e+9 
           4070      2.25075e+9 
           4090      2.13139e+9 
           4110      1.98208e+9 
           4130      2.12666e+9 
           4150      2.09613e+9 
           4170      2.06675e+9 
           4190      2.01855e+9 
           4210      1.96375e+9 
           4230       1.9622e+9 
           4250      1.92669e+9 
           4270      1.89263e+9 
           4290      1.86027e+9 
           4310      1.82057e+9 
           4330      1.71502e+9 
           4350      1.62592e+9 
           4370      1.72807e+9 
           4390      1.69145e+9 
           4410      1.67478e+9 
           4430      1.64919e+9 
           4450      1.62158e+9 
           4470      1.57124e+9 
           4490      1.56815e+9 
           4510      1.53931e+9 
           4530      1.51202e+9 
           4550      1.46141e+9 
           4570      1.46791e+9 
           4590      1.44336e+9 
           4610      1.42064e+9 
           4630      1.39331e+9 
           4650      1.35473e+9 
           4670      1.35003e+9 
           4690      1.28597e+9 
           4710      1.30537e+9 
           4730      1.29188e+9 
           4750      1.27151e+9 
           4770      1.25156e+9 
           4790      1.23204e+9 
           4810      1.21263e+9 
           4830      1.18999e+9 
           4850      1.13393e+9 
           4870      1.05996e+9 
           4890      1.13356e+9 
           4910      1.12131e+9 
           4930       1.0956e+9 
           4950      1.08808e+9 
           4970      1.07221e+9 
           4990      1.05619e+9 
           5010       1.0355e+9 
           5030      1.02437e+9 
           5050      1.00808e+9 
           5070      9.94567e+8 
           5090      9.79935e+8 
           5110      9.65557e+8 
           5130       9.5134e+8 
           5150      9.37463e+8 
           5170      9.23795e+8 
           5190      9.10452e+8 
           5210      8.97327e+8 
           5230      8.84457e+8 
           5250      8.71323e+8 
           5270      8.58684e+8 
           5290      8.47088e+8 
           5310      8.35081e+8 
           5330      8.23242e+8 
           5350      8.11688e+8 
           5370      8.00299e+8 
           5390      7.89054e+8 
           5410      7.61914e+8 
           5430       7.6698e+8 
           5450      7.56694e+8 
           5470       7.4621e+8 
           5490      7.35996e+8 
           5510      7.25663e+8 
           5530      7.16012e+8 
           5550      7.06275e+8 
           5570       6.9661e+8 
           5590      6.86186e+8 
           5610      6.78035e+8 
           5630      6.68933e+8 
           5650      6.59981e+8 
           5670      6.51173e+8 
           5690       6.3455e+8 
           5710      5.97735e+8 
           5730      5.90129e+8 
           5750      5.82611e+8 
           5770       5.7532e+8 
           5790      5.68173e+8 
           5810      5.60306e+8 
           5830      5.54739e+8 
           5850      5.49301e+8 
           5870      5.38337e+8 
           5890      5.39033e+8 
           5910       5.3483e+8 
           5930      5.30744e+8 
           5950      5.26981e+8 
           5970      5.23498e+8 
           5990      5.20419e+8 
           6010      5.16479e+8 
           6030      5.12138e+8 
           6050      5.08139e+8 
           6070      5.01993e+8 
           6090      4.96345e+8 
           6110      4.90218e+8 
           6130      4.84537e+8 
           6150        4.787e+8 
           6170      4.71981e+8 
           6190      4.67146e+8 
           6210      4.61465e+8 
           6230      4.54713e+8 
           6250      4.49994e+8 
           6270      4.44817e+8 
           6290      4.39442e+8 
           6310      4.32469e+8 
           6330      4.28763e+8 
           6350      4.23787e+8 
           6370      4.18723e+8 
           6390      4.13561e+8 
           6410      4.06674e+8 
           6430      4.03976e+8 
           6450      3.99129e+8 
           6470      3.94398e+8 
           6490      3.89841e+8 
           6510      3.84775e+8 
           6530      3.77121e+8 
           6550      3.68526e+8 
           6570      3.41856e+8 
           6590      3.65834e+8 
           6610      3.63408e+8 
           6630      3.59298e+8 
           6650      3.55191e+8 
           6670      3.48746e+8 
           6690      3.42378e+8 
           6710      3.42891e+8 
           6730      3.39167e+8 
           6750      3.35327e+8 
           6770      3.31663e+8 
           6790      3.27955e+8 
           6810      3.24286e+8 
           6830      3.20661e+8 
           6850      3.17081e+8 
           6870      3.13496e+8 
           6890      3.06451e+8 
           6910      3.06391e+8 
           6930      3.03267e+8 
           6950      2.99933e+8 
           6970      2.96648e+8 
           6990      2.93403e+8 
           7010      2.90152e+8 
           7030      2.86857e+8 
           7050       2.8386e+8 
           7070      2.79008e+8 
           7090      2.77833e+8 
           7110      2.74834e+8 
           7130      2.71886e+8 
           7150      2.68982e+8 
           7170      2.63746e+8 
           7190      2.61807e+8 
           7210       2.6048e+8 
           7230        2.577e+8 
           7250      2.54997e+8 
           7270      2.52313e+8 
           7290      2.48953e+8 
           7310      2.47001e+8 
           7330      2.44462e+8 
           7350      2.41914e+8 
           7370      2.39382e+8 
           7390      2.36915e+8 
           7410      2.34444e+8 
           7430      2.32044e+8 
           7450      2.29605e+8 
           7470      2.27304e+8 
           7490      2.24795e+8 
           7510      2.22651e+8 
           7530      2.20407e+8 
           7550       2.1817e+8 
           7570      2.15941e+8 
           7590      2.10514e+8 
           7610      2.11322e+8 
           7630      2.09478e+8 
           7650      2.07373e+8 
           7670      2.05313e+8 
           7690      2.03164e+8 
           7710      2.01199e+8 
           7730      1.99099e+8 
           7750      1.97264e+8 
           7770       1.9532e+8 
           7790      1.93393e+8 
           7810      1.91478e+8 
           7830       1.8961e+8 
           7850       1.8774e+8 
           7870      1.85917e+8 
           7890      1.84117e+8 
           7910      1.82356e+8 
           7930      1.80586e+8 
           7950      1.78844e+8 
           7970      1.77076e+8 
           7990      1.75412e+8 
           8010      1.73727e+8 
           8030      1.72033e+8 
           8050      1.70423e+8 
           8070      1.68793e+8 
           8090      1.67188e+8 
           8110      1.65603e+8 
           8130      1.64037e+8 
