# Kurucz ODFNEW /NOVER models
# teff = 49000 K (value for the effective temperature for the model. Temperatures are given in K)
# logg = 5.00 log(cm/s2) (value for Log(G) for the model.)
# meta = -0.5  (value for the Metallicity for the model.)
# lh = 1.25  (l/Hp where l is the  mixing length of the convective element and Hp is the pressure scale height)
# vtur = 2.0 km/s (Microturbulence velocity)
#
# column 1: WAVELENGTH (ANGSTROM), Wavelength in Angstrom
# column 2: FLUX (ERG/CM2/S/A), Flux in erg/cm2/s/A
              0               0 
           90.9      0.00950669 
           93.5       0.0239373 
           96.1       0.0563715 
           97.7        0.095334 
           99.6        0.171239 
            102        0.347489 
          103.8        0.578291 
          105.6        0.945258 
          107.7         1.64144 
          110.4         3.23344 
            114         7.57983 
          117.8         17.5496 
          121.3         36.4551 
          124.8         72.2233 
          127.1         111.099 
          128.4         142.486 
          130.5         205.765 
          132.4         284.862 
          133.9         366.095 
          136.6          563.25 
          139.8         928.002 
          143.3         1545.86 
          147.2         2579.13 
            151         4382.61 
          155.2         7417.91 
          158.8         11433.5 
            162         17346.5 
            166         27061.2 
          170.3         41355.5 
          173.4         55881.3 
          176.8         78151.1 
          180.2          107564 
          181.7          119187 
          186.1          179461 
            191          265594 
          193.9          342378 
          198.4          480031 
          201.8          605164 
            205          772475 
          210.5      1.12058e+6 
          216.2       1.6092e+6 
          219.8      2.02838e+6 
            223      2.42649e+6 
          226.8      2.98538e+6 
            230      2.04389e+8 
            234      1.69073e+9 
            240      6.57316e+9 
          246.5       2.251e+10 
          252.4     6.09988e+10 
          256.8     8.41592e+10 
            260     9.56314e+10 
            264      2.0023e+11 
          268.5     2.23612e+11 
          273.5     2.51379e+11 
          278.5     2.05627e+11 
            284     3.03759e+11 
            290     3.64533e+11 
            296     3.07434e+11 
            301     1.73381e+11 
            308     2.04933e+11 
            318     1.11606e+11 
            328     1.28226e+11 
            338     8.94242e+10 
            348     8.79204e+10 
            357     1.76032e+11 
            366     2.67395e+11 
            375      3.0583e+11 
            385      2.6021e+11 
            395     3.53659e+11 
            405     4.35745e+11 
            414     4.28086e+11 
            422     3.96101e+11 
            430     3.71026e+11 
            441     4.23103e+11 
            451     4.24848e+11 
            460     3.79133e+11 
            470     3.89571e+11 
            480     4.09433e+11 
            490     3.61181e+11 
            500     4.11192e+11 
            506      3.6077e+11 
            512     4.11573e+11 
            520       3.903e+11 
            530     3.66029e+11 
            540     3.16203e+11 
            550     2.79117e+11 
            560     3.36391e+11 
            570     3.46848e+11 
            580     3.37914e+11 
            590     3.33354e+11 
            600      3.0604e+11 
            610     2.72671e+11 
            620     3.07452e+11 
            630       2.841e+11 
            640     2.99554e+11 
            650     2.82053e+11 
            658     2.61375e+11 
            665     2.79584e+11 
            675     2.76174e+11 
            685     2.53509e+11 
            695     2.63752e+11 
            705     2.41535e+11 
            716      2.5094e+11 
            726     2.49278e+11 
            735     2.43622e+11 
            745     2.33542e+11 
            755     2.25784e+11 
            765     2.10038e+11 
            775     2.15604e+11 
            785     2.02223e+11 
            795     2.05185e+11 
            805     2.03502e+11 
            815     1.99594e+11 
            825     1.96174e+11 
            835     1.81388e+11 
            845     1.86538e+11 
            855     1.78423e+11 
            865     1.79397e+11 
            875     1.76304e+11 
            885     1.70692e+11 
            895     1.67242e+11 
            905     1.61534e+11 
            915     1.19554e+11 
            925     1.78708e+11 
            935     2.20563e+11 
            945     2.52913e+11 
            955     2.78636e+11 
            965     2.99709e+11 
            975     2.34572e+11 
            985     2.74907e+11 
            995     2.47045e+11 
           1005     2.54801e+11 
           1015      2.5193e+11 
           1025      2.1548e+11 
           1035     2.50623e+11 
           1045     2.50654e+11 
           1055     2.44317e+11 
           1065     2.30311e+11 
           1075     2.31637e+11 
           1085     2.12602e+11 
           1095     2.19727e+11 
           1105      2.1285e+11 
           1115     2.08091e+11 
           1125     2.00182e+11 
           1135     2.00176e+11 
           1145     1.96419e+11 
           1155     1.88585e+11 
           1165     1.78899e+11 
           1175     1.66751e+11 
           1185     1.72004e+11 
           1195     1.65128e+11 
           1205      1.6168e+11 
           1215     1.33063e+11 
           1225     1.53356e+11 
           1235     1.46775e+11 
           1245     1.42606e+11 
           1255     1.43894e+11 
           1265     1.41275e+11 
           1275     1.38333e+11 
           1285     1.35456e+11 
           1295     1.33112e+11 
           1305     1.28235e+11 
           1315     1.25656e+11 
           1325     1.22401e+11 
           1335     1.20221e+11 
           1345     1.17472e+11 
           1355     1.12913e+11 
           1365     1.08143e+11 
           1375     1.04059e+11 
           1385     1.03991e+11 
           1395     1.00986e+11 
           1405      9.6651e+10 
           1415     9.99427e+10 
           1425     9.57267e+10 
           1435     9.58553e+10 
           1442     9.21316e+10 
           1447     9.15785e+10 
           1455     8.94479e+10 
           1465     8.80062e+10 
           1475      8.6798e+10 
           1485     8.62923e+10 
           1495     8.39821e+10 
           1505     8.24405e+10 
           1512     8.16791e+10 
           1517     7.97811e+10 
           1525     7.93269e+10 
           1535     7.57594e+10 
           1545       6.913e+10 
           1555     6.86989e+10 
           1565     7.08676e+10 
           1575     7.05082e+10 
           1585     6.86738e+10 
           1595     6.77618e+10 
           1605     6.54153e+10 
           1615     6.39448e+10 
           1625     6.29477e+10 
           1635     6.15402e+10 
           1645     5.83285e+10 
           1655     6.03794e+10 
           1665     5.94797e+10 
           1672     5.74924e+10 
           1677     5.86436e+10 
           1685     5.77709e+10 
           1695     5.68682e+10 
           1705     5.53609e+10 
           1715     5.32276e+10 
           1725     5.25956e+10 
           1735     5.27557e+10 
           1745     5.16554e+10 
           1755     5.05633e+10 
           1765      4.9726e+10 
           1775      4.8793e+10 
           1785     4.81059e+10 
           1795     4.69751e+10 
           1805     4.61462e+10 
           1815     4.52765e+10 
           1825     4.44706e+10 
           1835     4.37277e+10 
           1845     4.29905e+10 
           1855     4.21658e+10 
           1865     4.14691e+10 
           1875      4.0654e+10 
           1885     3.98781e+10 
           1895     3.94383e+10 
           1905     3.87452e+10 
           1915     3.80551e+10 
           1925     3.68919e+10 
           1935     3.67722e+10 
           1945     3.61631e+10 
           1955     3.54175e+10 
           1967     3.47705e+10 
           1976     3.41688e+10 
           1984      3.3807e+10 
           1995      3.3134e+10 
           2005     3.26243e+10 
           2015     3.20724e+10 
           2025     3.15367e+10 
           2035     3.09719e+10 
           2045     3.03363e+10 
           2055     2.31327e+10 
           2065     2.21158e+10 
           2074     2.22948e+10 
           2078     2.26549e+10 
           2085     2.37188e+10 
           2095     2.60276e+10 
           2105     2.72586e+10 
           2115      2.7164e+10 
           2125     2.66778e+10 
           2135     2.62648e+10 
           2145     2.58568e+10 
           2155     2.58194e+10 
           2165     2.45526e+10 
           2175     2.52097e+10 
           2185     2.39561e+10 
           2195     2.44615e+10 
           2205     2.41177e+10 
           2215     2.27855e+10 
           2225     2.33825e+10 
           2235     2.30508e+10 
           2245     2.26493e+10 
           2255     2.14635e+10 
           2265     2.19808e+10 
           2275     2.16854e+10 
           2285     2.12846e+10 
           2295     2.08177e+10 
           2305     1.98972e+10 
           2315     2.02894e+10 
           2325     2.00776e+10 
           2335      1.9781e+10 
           2345     1.94578e+10 
           2355     1.91489e+10 
           2365       1.886e+10 
           2375     1.85446e+10 
           2385     1.75483e+10 
           2395     1.79248e+10 
           2405     1.76686e+10 
           2415     1.74457e+10 
           2425     1.72784e+10 
           2435      1.7004e+10 
           2445     1.67663e+10 
           2455     1.64555e+10 
           2465     1.62808e+10 
           2475     1.60818e+10 
           2485      1.5816e+10 
           2495       1.512e+10 
           2505     1.53033e+10 
           2513     1.41024e+10 
           2518     1.49116e+10 
           2525     1.48385e+10 
           2535     1.47591e+10 
           2545     1.45666e+10 
           2555     1.43582e+10 
           2565     1.41691e+10 
           2575     1.39656e+10 
           2585      1.3772e+10 
           2595      1.3477e+10 
           2605     1.34081e+10 
           2615     1.31702e+10 
           2625     1.30504e+10 
           2635     1.28756e+10 
           2645     1.26879e+10 
           2655     1.25311e+10 
           2665     1.23592e+10 
           2675     1.21412e+10 
           2685     1.20227e+10 
           2695     1.18486e+10 
           2705     1.17261e+10 
           2715     1.15653e+10 
           2725      1.1406e+10 
           2735     1.08826e+10 
           2745     1.11214e+10 
           2755     1.09718e+10 
           2765      1.0832e+10 
           2775     1.06875e+10 
           2785     1.05342e+10 
           2795     1.03957e+10 
           2805     1.02815e+10 
           2815      1.0152e+10 
           2825     1.00104e+10 
           2835      9.89867e+9 
           2845      9.77848e+9 
           2855      9.65509e+9 
           2865      9.52174e+9 
           2875      9.39999e+9 
           2885      9.29468e+9 
           2895      9.17437e+9 
           2910      9.00795e+9 
           2930      8.79282e+9 
           2950      8.57703e+9 
           2970      8.36283e+9 
           2990      8.14638e+9 
           3010      7.95907e+9 
           3030      7.75092e+9 
           3050      7.57833e+9 
           3070      7.38877e+9 
           3090      7.24215e+9 
           3110      7.07414e+9 
           3130      6.90596e+9 
           3150      6.75816e+9 
           3170      6.59969e+9 
           3190      6.45165e+9 
           3210      6.19566e+9 
           3230      6.17189e+9 
           3250      6.03518e+9 
           3270      5.87278e+9 
           3290      5.76645e+9 
           3310      5.63886e+9 
           3330       5.5163e+9 
           3350      5.38283e+9 
           3370      5.27899e+9 
           3390      5.16147e+9 
           3410      5.04734e+9 
           3430      4.95245e+9 
           3450       4.8376e+9 
           3470      4.74383e+9 
           3490      4.64567e+9 
           3510      4.55346e+9 
           3530      4.45606e+9 
           3550      4.36501e+9 
           3570      4.27606e+9 
           3590      4.18879e+9 
           3610      4.10347e+9 
           3630      4.01863e+9 
           3640      3.89877e+9 
           3650       3.5285e+9 
           3670      3.46272e+9 
           3690      3.40261e+9 
           3710      3.35863e+9 
           3730      3.34329e+9 
           3750      3.34469e+9 
           3770       3.3464e+9 
           3790      3.36679e+9 
           3810      3.38343e+9 
           3830      3.21797e+9 
           3850      3.29901e+9 
           3870      3.27832e+9 
           3890      2.99749e+9 
           3910        3.168e+9 
           3930      3.09704e+9 
           3950      3.05513e+9 
           3970      2.76747e+9 
           3990      2.94047e+9 
           4010      2.90137e+9 
           4030       2.8005e+9 
           4050      2.80369e+9 
           4070      2.74868e+9 
           4090      2.62773e+9 
           4110      2.47019e+9 
           4130      2.59806e+9 
           4150      2.55842e+9 
           4170      2.51444e+9 
           4190      2.45466e+9 
           4210      2.38569e+9 
           4230      2.38445e+9 
           4250      2.34246e+9 
           4270      2.30155e+9 
           4290      2.26152e+9 
           4310      2.21705e+9 
           4330      2.11001e+9 
           4350       2.0164e+9 
           4370      2.10234e+9 
           4390      2.06798e+9 
           4410      2.03493e+9 
           4430      2.00258e+9 
           4450      1.96769e+9 
           4470      1.92769e+9 
           4490      1.90345e+9 
           4510      1.87049e+9 
           4530      1.83531e+9 
           4550      1.77264e+9 
           4570      1.78043e+9 
           4590      1.75153e+9 
           4610      1.72357e+9 
           4630      1.69186e+9 
           4650      1.65509e+9 
           4670      1.63806e+9 
           4690       1.5578e+9 
           4710      1.58804e+9 
           4730      1.56465e+9 
           4750      1.53987e+9 
           4770      1.51545e+9 
           4790        1.491e+9 
           4810      1.46821e+9 
           4830      1.44277e+9 
           4850      1.38732e+9 
           4870      1.30929e+9 
           4890      1.37495e+9 
           4910      1.35759e+9 
           4930      1.33497e+9 
           4950      1.31693e+9 
           4970       1.2969e+9 
           4990      1.27743e+9 
           5010      1.25659e+9 
           5030      1.23907e+9 
           5050      1.22031e+9 
           5070      1.20239e+9 
           5090      1.18467e+9 
           5110      1.16716e+9 
           5130      1.14985e+9 
           5150      1.13298e+9 
           5170      1.11652e+9 
           5190      1.10023e+9 
           5210      1.08414e+9 
           5230      1.06857e+9 
           5250      1.05285e+9 
           5270      1.03753e+9 
           5290      1.02316e+9 
           5310      1.00857e+9 
           5330      9.94178e+8 
           5350      9.80162e+8 
           5370      9.66306e+8 
           5390      9.52662e+8 
           5410      9.18768e+8 
           5430      9.25813e+8 
           5450      9.13375e+8 
           5470      9.00625e+8 
           5490      8.88252e+8 
           5510      8.75784e+8 
           5530      8.64002e+8 
           5550      8.52184e+8 
           5570      8.40381e+8 
           5590      8.28099e+8 
           5610       8.1793e+8 
           5630      8.06888e+8 
           5650      7.96027e+8 
           5670       7.8536e+8 
           5690      7.64489e+8 
           5710      7.12888e+8 
           5730      7.03757e+8 
           5750      6.94745e+8 
           5770      6.86021e+8 
           5790      6.77582e+8 
           5810      6.67524e+8 
           5830      6.62385e+8 
           5850      6.55973e+8 
           5870      6.47792e+8 
           5890      6.44746e+8 
           5910       6.3997e+8 
           5930      6.35638e+8 
           5950      6.31885e+8 
           5970       6.2844e+8 
           5990      6.25814e+8 
           6010      6.21176e+8 
           6030      6.17021e+8 
           6050       6.1196e+8 
           6070      6.04283e+8 
           6090      5.97405e+8 
           6110      5.90333e+8 
           6130      5.83237e+8 
           6150      5.76753e+8 
           6170      5.67804e+8 
           6190       5.6245e+8 
           6210      5.55872e+8 
           6230      5.46746e+8 
           6250      5.41632e+8 
           6270      5.35702e+8 
           6290      5.29188e+8 
           6310      5.19762e+8 
           6330      5.16015e+8 
           6350      5.10274e+8 
           6370      5.04149e+8 
           6390      4.97575e+8 
           6410      4.88332e+8 
           6430      4.86218e+8 
           6450      4.80501e+8 
           6470      4.74799e+8 
           6490      4.69247e+8 
           6510       4.6308e+8 
           6530       4.5295e+8 
           6550      4.46043e+8 
           6570      4.17629e+8 
           6590      4.41037e+8 
           6610      4.37328e+8 
           6630      4.32277e+8 
           6650      4.27303e+8 
           6670      4.20723e+8 
           6690      4.11654e+8 
           6710      4.12559e+8 
           6730      4.08048e+8 
           6750      4.03392e+8 
           6770      3.98868e+8 
           6790      3.94371e+8 
           6810      3.89931e+8 
           6830      3.85551e+8 
           6850      3.81231e+8 
           6870      3.76908e+8 
           6890      3.66922e+8 
           6910      3.68208e+8 
           6930      3.64548e+8 
           6950      3.60527e+8 
           6970      3.56552e+8 
           6990      3.52634e+8 
           7010       3.4874e+8 
           7030      3.44851e+8 
           7050      3.41149e+8 
           7070      3.36862e+8 
           7090       3.3384e+8 
           7110      3.30197e+8 
           7130      3.26621e+8 
           7150      3.23161e+8 
           7170      3.15972e+8 
           7190      3.13913e+8 
           7210      3.12905e+8 
           7230      3.09578e+8 
           7250      3.06295e+8 
           7270      3.03057e+8 
           7290      2.99716e+8 
           7310      2.96655e+8 
           7330      2.93586e+8 
           7350      2.90512e+8 
           7370       2.8746e+8 
           7390      2.84451e+8 
           7410      2.81504e+8 
           7430      2.78612e+8 
           7450      2.75659e+8 
           7470      2.72889e+8 
           7490      2.69989e+8 
           7510      2.67284e+8 
           7530      2.64577e+8 
           7550      2.61876e+8 
           7570      2.59205e+8 
           7590       2.5172e+8 
           7610      2.53514e+8 
           7630      2.51417e+8 
           7650      2.48881e+8 
           7670      2.46381e+8 
           7690       2.4384e+8 
           7710      2.41429e+8 
           7730      2.38965e+8 
           7750      2.36686e+8 
           7770      2.34339e+8 
           7790       2.3202e+8 
           7810      2.29728e+8 
           7830      2.27462e+8 
           7850      2.25173e+8 
           7870      2.22996e+8 
           7890      2.20826e+8 
           7910      2.18687e+8 
           7930      2.16561e+8 
           7950      2.14454e+8 
           7970      2.12335e+8 
           7990      2.10329e+8 
           8010      2.08299e+8 
           8030      2.06276e+8 
           8050      2.04322e+8 
           8070      2.02362e+8 
           8090       2.0043e+8 
           8110       1.9852e+8 
           8130      1.96638e+8 
