# Kurucz ODFNEW /NOVER models
# teff = 41000 K (value for the effective temperature for the model. Temperatures are given in K)
# logg = 4.50 log(cm/s2) (value for Log(G) for the model.)
# meta = -0.5  (value for the Metallicity for the model.)
# lh = 1.25  (l/Hp where l is the  mixing length of the convective element and Hp is the pressure scale height)
# vtur = 2.0 km/s (Microturbulence velocity)
#
# column 1: WAVELENGTH (ANGSTROM), Wavelength in Angstrom
# column 2: FLUX (ERG/CM2/S/A), Flux in erg/cm2/s/A
              0               0 
           90.9      2.57539e-8 
           93.5      8.29541e-8 
           96.1      2.50399e-7 
           97.7      4.84899e-7 
           99.6      1.02999e-6 
            102      2.57175e-6 
          103.8       4.9878e-6 
          105.6      9.47827e-6 
          107.7      1.95655e-5 
          110.4      4.79158e-5 
            114     0.000149202 
          117.8     0.000463881 
          121.3      0.00124897 
          124.8      0.00319983 
          127.1      0.00578956 
          128.4      0.00802448 
          130.5       0.0134278 
          132.4       0.0211266 
          133.9       0.0299885 
          136.6       0.0552814 
          139.8        0.111454 
          143.3         0.23158 
          147.2        0.499901 
            151           1.039 
          155.2         2.22203 
          158.8         4.13923 
            162         7.04941 
            166         13.3774 
          170.3          25.673 
          173.4         40.3323 
          176.8         65.2915 
          180.2         103.642 
          181.7         125.623 
          186.1         222.569 
            191         405.739 
          193.9          571.71 
          198.4         952.447 
          201.8         1378.12 
            205         1936.85 
          210.5         3387.41 
          216.2          5855.7 
          219.8         8186.97 
            223         10892.3 
          226.8         15090.2 
            230      6.89843e+6 
            234      3.01792e+7 
            240      5.42675e+7 
          246.5      1.15377e+8 
          252.4      3.38217e+8 
          256.8      4.79563e+8 
            260      9.60385e+8 
            264      5.48641e+9 
          268.5       7.6969e+9 
          273.5      9.26236e+9 
          278.5      6.15399e+9 
            284     1.35828e+10 
            290      1.8178e+10 
            296     1.21297e+10 
            301      4.76853e+9 
            308       1.499e+10 
            318     1.16878e+10 
            328     1.64032e+10 
            338       1.304e+10 
            348     1.39703e+10 
            357     3.08627e+10 
            366     5.07489e+10 
            375     6.01321e+10 
            385     5.44666e+10 
            395     7.66401e+10 
            405     9.67475e+10 
            414     9.51146e+10 
            422     9.10749e+10 
            430     8.41784e+10 
            441     9.60514e+10 
            451     9.85643e+10 
            460     8.74902e+10 
            470      8.8553e+10 
            480     9.60091e+10 
            490     7.98305e+10 
            500     9.68468e+10 
            506     8.60443e+10 
            512      1.3705e+11 
            520     1.27003e+11 
            530     1.16601e+11 
            540     1.02566e+11 
            550     9.45165e+10 
            560     1.20026e+11 
            570     1.26504e+11 
            580     1.20903e+11 
            590     1.21774e+11 
            600     1.07002e+11 
            610      1.0331e+11 
            620     1.21614e+11 
            630      1.1488e+11 
            640     1.20736e+11 
            650     1.14553e+11 
            658     1.04345e+11 
            665     1.14188e+11 
            675     1.17222e+11 
            685     1.05161e+11 
            695     1.12444e+11 
            705     1.00219e+11 
            716     1.11361e+11 
            726     1.10758e+11 
            735     1.09946e+11 
            745     1.04842e+11 
            755     1.02565e+11 
            765     9.65667e+10 
            775     9.94912e+10 
            785     9.39954e+10 
            795     9.67418e+10 
            805     9.54113e+10 
            815     9.47236e+10 
            825     9.40905e+10 
            835     8.46857e+10 
            845     9.03278e+10 
            855     8.74438e+10 
            865     8.84547e+10 
            875     8.73646e+10 
            885     8.54639e+10 
            895     8.41949e+10 
            905     8.17051e+10 
            915     6.50843e+10 
            925     1.10726e+11 
            935     1.45383e+11 
            945      1.6814e+11 
            955     1.82313e+11 
            965     1.97115e+11 
            975     1.48532e+11 
            985      1.7875e+11 
            995     1.62485e+11 
           1005     1.64519e+11 
           1015     1.66219e+11 
           1025     1.42488e+11 
           1035     1.64165e+11 
           1045     1.65778e+11 
           1055     1.61516e+11 
           1065      1.5302e+11 
           1075     1.52045e+11 
           1085     1.42144e+11 
           1095     1.45633e+11 
           1105     1.40723e+11 
           1115     1.37435e+11 
           1125     1.30731e+11 
           1135     1.32675e+11 
           1145     1.30215e+11 
           1155     1.23988e+11 
           1165      1.1936e+11 
           1175      1.0545e+11 
           1185     1.12151e+11 
           1195     1.08875e+11 
           1205     1.06391e+11 
           1215     8.86202e+10 
           1225     1.00829e+11 
           1235     9.98399e+10 
           1245     9.72824e+10 
           1255     9.69508e+10 
           1265     9.60691e+10 
           1275     9.48531e+10 
           1285     9.32798e+10 
           1295     9.11057e+10 
           1305     8.83722e+10 
           1315      8.7495e+10 
           1325     8.53512e+10 
           1335     8.37686e+10 
           1345     8.24462e+10 
           1355     7.92867e+10 
           1365     7.65541e+10 
           1375     7.42013e+10 
           1385     7.34264e+10 
           1395     7.05885e+10 
           1405     6.77093e+10 
           1415     7.02084e+10 
           1425      6.6106e+10 
           1435     6.70303e+10 
           1442     6.50945e+10 
           1447     6.46562e+10 
           1455     6.28617e+10 
           1465     6.22243e+10 
           1475     6.11703e+10 
           1485     6.09661e+10 
           1495     5.92513e+10 
           1505     5.87027e+10 
           1512     5.82116e+10 
           1517     5.70166e+10 
           1525     5.62189e+10 
           1535     5.28588e+10 
           1545     4.70899e+10 
           1555     4.72029e+10 
           1565     4.92103e+10 
           1575     4.95989e+10 
           1585     4.87771e+10 
           1595     4.81125e+10 
           1605     4.59282e+10 
           1615     4.46808e+10 
           1625      4.4288e+10 
           1635     4.35494e+10 
           1645     4.16601e+10 
           1655     4.31551e+10 
           1665     4.23775e+10 
           1672      4.0514e+10 
           1677     4.24857e+10 
           1685     4.16202e+10 
           1695     4.09549e+10 
           1705     3.98913e+10 
           1715      3.8431e+10 
           1725     3.78995e+10 
           1735     3.82808e+10 
           1745     3.75811e+10 
           1755     3.66784e+10 
           1765     3.62191e+10 
           1775     3.55767e+10 
           1785     3.51932e+10 
           1795     3.42948e+10 
           1805     3.37992e+10 
           1815     3.32092e+10 
           1825     3.25716e+10 
           1835      3.2213e+10 
           1845     3.16533e+10 
           1855     3.11071e+10 
           1865     3.05956e+10 
           1875     2.99423e+10 
           1885     2.94219e+10 
           1895     2.92465e+10 
           1905     2.88074e+10 
           1915     2.83142e+10 
           1925     2.73121e+10 
           1935      2.7429e+10 
           1945     2.70003e+10 
           1955     2.63128e+10 
           1967     2.59879e+10 
           1976      2.5604e+10 
           1984     2.53262e+10 
           1995     2.48432e+10 
           2005     2.45051e+10 
           2015     2.41038e+10 
           2025      2.3712e+10 
           2035     2.33085e+10 
           2045     2.28586e+10 
           2055     1.73002e+10 
           2065     1.66065e+10 
           2074     1.69611e+10 
           2078     1.73608e+10 
           2085     1.86137e+10 
           2095     2.05111e+10 
           2105     2.07723e+10 
           2115     2.06134e+10 
           2125     2.02238e+10 
           2135     1.99629e+10 
           2145     1.96798e+10 
           2155     1.96955e+10 
           2165     1.87295e+10 
           2175     1.92274e+10 
           2185      1.8348e+10 
           2195     1.86824e+10 
           2205      1.8411e+10 
           2215     1.75226e+10 
           2225      1.7854e+10 
           2235     1.76018e+10 
           2245     1.73093e+10 
           2255      1.6542e+10 
           2265     1.68163e+10 
           2275     1.65923e+10 
           2285     1.62815e+10 
           2295     1.58152e+10 
           2305     1.53684e+10 
           2315     1.55635e+10 
           2325     1.53957e+10 
           2335     1.51757e+10 
           2345     1.49321e+10 
           2355     1.47023e+10 
           2365     1.44847e+10 
           2375      1.4244e+10 
           2385     1.35619e+10 
           2395     1.37655e+10 
           2405     1.36239e+10 
           2415     1.34434e+10 
           2425      1.3311e+10 
           2435      1.3106e+10 
           2445     1.29284e+10 
           2455     1.27095e+10 
           2465     1.25675e+10 
           2475     1.24176e+10 
           2485     1.22093e+10 
           2495     1.12946e+10 
           2505      1.1838e+10 
           2513     1.10266e+10 
           2518     1.15152e+10 
           2525     1.15141e+10 
           2535     1.14252e+10 
           2545      1.1278e+10 
           2555     1.11172e+10 
           2565     1.09751e+10 
           2575     1.08242e+10 
           2585     1.06825e+10 
           2595     1.04672e+10 
           2605     1.04036e+10 
           2615     1.02328e+10 
           2625     1.01342e+10 
           2635     1.00058e+10 
           2645      9.86248e+9 
           2655      9.74397e+9 
           2665      9.61051e+9 
           2675      9.43825e+9 
           2685      9.35655e+9 
           2695      9.22761e+9 
           2705      9.13633e+9 
           2715      9.00885e+9 
           2725      8.89059e+9 
           2735      8.53914e+9 
           2745      8.68001e+9 
           2755      8.56549e+9 
           2765      8.45193e+9 
           2775      8.35099e+9 
           2785      8.23332e+9 
           2795       8.1099e+9 
           2805      8.03591e+9 
           2815      7.94039e+9 
           2825      7.83142e+9 
           2835      7.74391e+9 
           2845      7.65838e+9 
           2855      7.56277e+9 
           2865      7.46327e+9 
           2875      7.37498e+9 
           2885      7.28771e+9 
           2895       7.1979e+9 
           2910       7.0656e+9 
           2930      6.90233e+9 
           2950      6.73331e+9 
           2970      6.56989e+9 
           2990      6.39928e+9 
           3010      6.25715e+9 
           3030      6.09193e+9 
           3050      5.96329e+9 
           3070      5.82988e+9 
           3090      5.70691e+9 
           3110      5.57845e+9 
           3130      5.45008e+9 
           3150      5.33744e+9 
           3170      5.21483e+9 
           3190      5.09779e+9 
           3210      4.91456e+9 
           3230      4.88386e+9 
           3250      4.77935e+9 
           3270      4.64918e+9 
           3290      4.56917e+9 
           3310      4.46943e+9 
           3330      4.37511e+9 
           3350      4.26967e+9 
           3370      4.19062e+9 
           3390      4.10461e+9 
           3410      4.01707e+9 
           3430       3.9396e+9 
           3450      3.84754e+9 
           3470      3.77858e+9 
           3490      3.70169e+9 
           3510      3.62785e+9 
           3530      3.55116e+9 
           3550      3.47927e+9 
           3570      3.41263e+9 
           3590      3.34137e+9 
           3610      3.27409e+9 
           3630      3.20724e+9 
           3640       3.1197e+9 
           3650      2.83824e+9 
           3670      2.78711e+9 
           3690      2.74253e+9 
           3710      2.71143e+9 
           3730      2.70491e+9 
           3750      2.71594e+9 
           3770      2.71291e+9 
           3790      2.73235e+9 
           3810      2.74449e+9 
           3830      2.59288e+9 
           3850      2.68394e+9 
           3870      2.66005e+9 
           3890       2.4326e+9 
           3910      2.57879e+9 
           3930      2.51212e+9 
           3950      2.48312e+9 
           3970      2.24923e+9 
           3990      2.39525e+9 
           4010      2.35783e+9 
           4030      2.27301e+9 
           4050      2.27944e+9 
           4070      2.23404e+9 
           4090      2.14317e+9 
           4110      2.01119e+9 
           4130      2.11363e+9 
           4150      2.07893e+9 
           4170      2.04667e+9 
           4190      2.00325e+9 
           4210      1.94813e+9 
           4230      1.94316e+9 
           4250      1.90875e+9 
           4270      1.87579e+9 
           4290      1.84385e+9 
           4310      1.80921e+9 
           4330      1.72876e+9 
           4350      1.64782e+9 
           4370      1.71779e+9 
           4390      1.68375e+9 
           4410       1.6609e+9 
           4430      1.63543e+9 
           4450      1.60819e+9 
           4470      1.56866e+9 
           4490      1.55589e+9 
           4510      1.52762e+9 
           4530      1.50186e+9 
           4550      1.45553e+9 
           4570      1.45684e+9 
           4590      1.43285e+9 
           4610      1.41059e+9 
           4630       1.3841e+9 
           4650      1.34835e+9 
           4670      1.34165e+9 
           4690      1.27948e+9 
           4710      1.29914e+9 
           4730      1.28299e+9 
           4750      1.26293e+9 
           4770      1.24315e+9 
           4790      1.22378e+9 
           4810      1.20489e+9 
           4830       1.1852e+9 
           4850      1.14357e+9 
           4870       1.0756e+9 
           4890      1.13034e+9 
           4910      1.11511e+9 
           4930      1.09334e+9 
           4950      1.08198e+9 
           4970      1.06599e+9 
           4990      1.05018e+9 
           5010      1.03138e+9 
           5030      1.01883e+9 
           5050      1.00313e+9 
           5070      9.89234e+8 
           5090      9.74802e+8 
           5110      9.60592e+8 
           5130      9.46505e+8 
           5150      9.32774e+8 
           5170      9.19329e+8 
           5190      9.06075e+8 
           5210      8.93067e+8 
           5230      8.80353e+8 
           5250      8.67372e+8 
           5270      8.54846e+8 
           5290      8.43358e+8 
           5310      8.31474e+8 
           5330      8.19729e+8 
           5350      8.08306e+8 
           5370      7.97019e+8 
           5390      7.85891e+8 
           5410      7.61425e+8 
           5430      7.64273e+8 
           5450      7.53828e+8 
           5470      7.43428e+8 
           5490       7.3331e+8 
           5510       7.2303e+8 
           5530        7.135e+8 
           5550      7.03853e+8 
           5570      6.94217e+8 
           5590      6.83848e+8 
           5610      6.75855e+8 
           5630      6.66831e+8 
           5650      6.57952e+8 
           5670      6.49216e+8 
           5690      6.32187e+8 
           5710      5.92399e+8 
           5730      5.84895e+8 
           5750      5.77484e+8 
           5770      5.70364e+8 
           5790      5.63553e+8 
           5810      5.56043e+8 
           5830      5.51657e+8 
           5850      5.47121e+8 
           5870      5.38544e+8 
           5890      5.38598e+8 
           5910      5.34938e+8 
           5930      5.31676e+8 
           5950      5.28927e+8 
           5970      5.26184e+8 
           5990      5.23755e+8 
           6010      5.18974e+8 
           6030      5.13371e+8 
           6050      5.08427e+8 
           6070       5.0173e+8 
           6090      4.96184e+8 
           6110      4.89468e+8 
           6130      4.83553e+8 
           6150      4.78253e+8 
           6170      4.70794e+8 
           6190      4.66615e+8 
           6210      4.61015e+8 
           6230      4.53586e+8 
           6250      4.49539e+8 
           6270      4.44454e+8 
           6290      4.39109e+8 
           6310      4.31284e+8 
           6330      4.28469e+8 
           6350      4.23526e+8 
           6370      4.18492e+8 
           6390      4.13348e+8 
           6410      4.05547e+8 
           6430      4.03811e+8 
           6450      3.98994e+8 
           6470       3.9429e+8 
           6490      3.89751e+8 
           6510       3.8496e+8 
           6530      3.76731e+8 
           6550      3.71617e+8 
           6570      3.46926e+8 
           6590      3.66979e+8 
           6610      3.63477e+8 
           6630      3.59316e+8 
           6650      3.55224e+8 
           6670      3.49489e+8 
           6690      3.42252e+8 
           6710      3.43002e+8 
           6730      3.39278e+8 
           6750      3.35441e+8 
           6770      3.31762e+8 
           6790      3.28069e+8 
           6810      3.24405e+8 
           6830      3.20799e+8 
           6850      3.17225e+8 
           6870      3.13688e+8 
           6890      3.06235e+8 
           6910      3.06691e+8 
           6930      3.03465e+8 
           6950      3.00137e+8 
           6970      2.96858e+8 
           6990      2.93619e+8 
           7010       2.9039e+8 
           7030      2.87124e+8 
           7050       2.8411e+8 
           7070      2.79701e+8 
           7090      2.78096e+8 
           7110      2.75102e+8 
           7130      2.72153e+8 
           7150      2.69262e+8 
           7170      2.63929e+8 
           7190      2.62237e+8 
           7210      2.60784e+8 
           7230      2.58032e+8 
           7250      2.55313e+8 
           7270      2.52634e+8 
           7290       2.4952e+8 
           7310      2.47332e+8 
           7330      2.44806e+8 
           7350      2.42262e+8 
           7370      2.39728e+8 
           7390      2.37267e+8 
           7410      2.34801e+8 
           7430      2.32412e+8 
           7450      2.29958e+8 
           7470      2.27668e+8 
           7490      2.25198e+8 
           7510      2.23025e+8 
           7530      2.20786e+8 
           7550      2.18554e+8 
           7570      2.16328e+8 
           7590      2.11031e+8 
           7610      2.11816e+8 
           7630      2.09872e+8 
           7650      2.07772e+8 
           7670       2.0571e+8 
           7690      2.03565e+8 
           7710      2.01598e+8 
           7730      1.99522e+8 
           7750      1.97672e+8 
           7770      1.95726e+8 
           7790      1.93797e+8 
           7810      1.91898e+8 
           7830      1.90021e+8 
           7850      1.88125e+8 
           7870      1.86319e+8 
           7890      1.84522e+8 
           7910      1.82753e+8 
           7930      1.80988e+8 
           7950      1.79244e+8 
           7970      1.77474e+8 
           7990      1.75813e+8 
           8010      1.74132e+8 
           8030      1.72436e+8 
           8050       1.7083e+8 
           8070      1.69203e+8 
           8090      1.67597e+8 
           8110      1.66015e+8 
           8130      1.64447e+8 
