# Kurucz ODFNEW /NOVER models
# teff = 44000 K (value for the effective temperature for the model. Temperatures are given in K)
# logg = 5.00 log(cm/s2) (value for Log(G) for the model.)
# meta = -0.5  (value for the Metallicity for the model.)
# lh = 1.25  (l/Hp where l is the  mixing length of the convective element and Hp is the pressure scale height)
# vtur = 2.0 km/s (Microturbulence velocity)
#
# column 1: WAVELENGTH (ANGSTROM), Wavelength in Angstrom
# column 2: FLUX (ERG/CM2/S/A), Flux in erg/cm2/s/A
              0               0 
           90.9      6.89418e-6 
           93.5      1.96746e-5 
           96.1      5.27248e-5 
           97.7      9.53064e-5 
           99.6     0.000186505 
            102      0.00042069 
          103.8      0.00075703 
          105.6      0.00133633 
          107.7      0.00253441 
          110.4      0.00557794 
            114       0.0151118 
          117.8        0.040725 
          121.3       0.0965119 
          124.8        0.218467 
          127.1        0.365528 
          128.4        0.484962 
          130.5        0.756769 
          132.4         1.11944 
          133.9         1.51544 
          136.6         2.56752 
          139.8         4.70758 
          143.3         8.84436 
          147.2         17.0978 
            151         32.3182 
          155.2         62.3302 
          158.8         106.796 
            162         169.905 
            166         296.547 
          170.3         521.057 
          173.4         770.712 
          176.8         1174.99 
          180.2         1758.12 
          181.7         2068.57 
          186.1          3424.2 
            191         5782.37 
          193.9         7819.04 
          198.4         12211.4 
          201.8         16858.1 
            205         22752.6 
          210.5         37140.7 
          216.2         59975.6 
          219.8         80567.4 
            223          103377 
          226.8          137375 
            230      2.76316e+7 
            234      1.35622e+8 
            240      3.14314e+8 
          246.5      9.99016e+8 
          252.4      3.50979e+9 
          256.8      4.99946e+9 
            260      7.83109e+9 
            264     2.79521e+10 
          268.5     3.76045e+10 
          273.5     4.41211e+10 
          278.5     3.20814e+10 
            284     6.00997e+10 
            290     7.59239e+10 
            296      5.6495e+10 
            301     2.34236e+10 
            308     5.11143e+10 
            318     3.33867e+10 
            328     4.34564e+10 
            338     3.22511e+10 
            348     3.31516e+10 
            357     6.97896e+10 
            366     1.08542e+11 
            375     1.26359e+11 
            385     1.13224e+11 
            395     1.52942e+11 
            405     1.86894e+11 
            414     1.82516e+11 
            422     1.72269e+11 
            430      1.5962e+11 
            441     1.78806e+11 
            451     1.82787e+11 
            460     1.62053e+11 
            470     1.63572e+11 
            480     1.74074e+11 
            490     1.48553e+11 
            500     1.72648e+11 
            506     1.52231e+11 
            512     2.14345e+11 
            520     1.99929e+11 
            530     1.85374e+11 
            540     1.62475e+11 
            550     1.49634e+11 
            560     1.84305e+11 
            570     1.89965e+11 
            580     1.81937e+11 
            590      1.8185e+11 
            600     1.63668e+11 
            610     1.55005e+11 
            620      1.7683e+11 
            630      1.6698e+11 
            640     1.73401e+11 
            650     1.64272e+11 
            658     1.51157e+11 
            665     1.62772e+11 
            675     1.64699e+11 
            685     1.49921e+11 
            695     1.57384e+11 
            705     1.43014e+11 
            716     1.53652e+11 
            726     1.52479e+11 
            735      1.5056e+11 
            745      1.4406e+11 
            755     1.40375e+11 
            765     1.32693e+11 
            775     1.35143e+11 
            785     1.28506e+11 
            795     1.30456e+11 
            805     1.28589e+11 
            815     1.27188e+11 
            825      1.2579e+11 
            835     1.14798e+11 
            845     1.20381e+11 
            855     1.16246e+11 
            865     1.17003e+11 
            875     1.15289e+11 
            885     1.12453e+11 
            895     1.10542e+11 
            905     1.07146e+11 
            915      8.1441e+10 
            925     1.28761e+11 
            935     1.66856e+11 
            945     2.00919e+11 
            955     2.21071e+11 
            965     2.47623e+11 
            975     1.81699e+11 
            985     2.27135e+11 
            995     2.03886e+11 
           1005     2.09916e+11 
           1015     2.09939e+11 
           1025     1.70403e+11 
           1035     2.06434e+11 
           1045     2.08649e+11 
           1055       2.032e+11 
           1065     1.91254e+11 
           1075     1.90842e+11 
           1085     1.74975e+11 
           1095     1.82071e+11 
           1105     1.75372e+11 
           1115      1.7145e+11 
           1125     1.63158e+11 
           1135     1.64808e+11 
           1145     1.61502e+11 
           1155     1.53895e+11 
           1165     1.47001e+11 
           1175     1.32063e+11 
           1185     1.38928e+11 
           1195     1.34507e+11 
           1205     1.30992e+11 
           1215      1.0468e+11 
           1225     1.23832e+11 
           1235     1.21934e+11 
           1245     1.18824e+11 
           1255      1.1866e+11 
           1265     1.17135e+11 
           1275     1.15272e+11 
           1285     1.13186e+11 
           1295     1.10429e+11 
           1305     1.07036e+11 
           1315     1.05588e+11 
           1325     1.02861e+11 
           1335     1.00988e+11 
           1345     9.90065e+10 
           1355     9.52893e+10 
           1365     9.18177e+10 
           1375     8.88351e+10 
           1385     8.78791e+10 
           1395     8.47282e+10 
           1405     8.12881e+10 
           1415     8.38684e+10 
           1425     7.93041e+10 
           1435     8.00926e+10 
           1442     7.76049e+10 
           1447     7.70281e+10 
           1455     7.49874e+10 
           1465     7.40463e+10 
           1475     7.26907e+10 
           1485     7.24155e+10 
           1495     7.03964e+10 
           1505     6.95288e+10 
           1512     6.89013e+10 
           1517     6.74329e+10 
           1525     6.65425e+10 
           1535     6.28293e+10 
           1545     5.64773e+10 
           1555     5.64683e+10 
           1565     5.84547e+10 
           1575     5.85288e+10 
           1585     5.74522e+10 
           1595     5.66422e+10 
           1605      5.4251e+10 
           1615     5.27464e+10 
           1625     5.21735e+10 
           1635       5.101e+10 
           1645     4.86251e+10 
           1655     5.05492e+10 
           1665     4.96885e+10 
           1672      4.7667e+10 
           1677     4.94795e+10 
           1685     4.85544e+10 
           1695     4.77485e+10 
           1705     4.64942e+10 
           1715     4.47854e+10 
           1725     4.41345e+10 
           1735     4.44433e+10 
           1745     4.35901e+10 
           1755     4.25591e+10 
           1765     4.19527e+10 
           1775      4.1175e+10 
           1785     4.07007e+10 
           1795     3.96745e+10 
           1805     3.90396e+10 
           1815     3.83498e+10 
           1825     3.75937e+10 
           1835     3.70987e+10 
           1845     3.64398e+10 
           1855     3.57886e+10 
           1865     3.51794e+10 
           1875     3.44399e+10 
           1885     3.38061e+10 
           1895     3.35447e+10 
           1905     3.29982e+10 
           1915     3.24142e+10 
           1925     3.12881e+10 
           1935     3.13673e+10 
           1945     3.08612e+10 
           1955     3.01195e+10 
           1967     2.96772e+10 
           1976     2.92213e+10 
           1984     2.88837e+10 
           1995     2.83294e+10 
           2005     2.79079e+10 
           2015     2.74395e+10 
           2025     2.69836e+10 
           2035     2.65134e+10 
           2045     2.59971e+10 
           2055     1.95215e+10 
           2065     1.86253e+10 
           2074     1.88047e+10 
           2078     1.91328e+10 
           2085     2.01034e+10 
           2095     2.22037e+10 
           2105     2.33918e+10 
           2115     2.33404e+10 
           2125     2.29002e+10 
           2135     2.25713e+10 
           2145     2.22402e+10 
           2155     2.22265e+10 
           2165     2.10893e+10 
           2175     2.17336e+10 
           2185        2.06e+10 
           2195     2.10962e+10 
           2205     2.08099e+10 
           2215     1.96127e+10 
           2225     2.01742e+10 
           2235     1.99006e+10 
           2245     1.95413e+10 
           2255      1.8483e+10 
           2265     1.89862e+10 
           2275     1.87331e+10 
           2285     1.83761e+10 
           2295     1.78887e+10 
           2305      1.7151e+10 
           2315     1.75261e+10 
           2325     1.73534e+10 
           2335     1.71014e+10 
           2345     1.68223e+10 
           2355     1.65574e+10 
           2365     1.63073e+10 
           2375     1.60246e+10 
           2385     1.51209e+10 
           2395     1.54777e+10 
           2405     1.53147e+10 
           2415     1.51119e+10 
           2425     1.49626e+10 
           2435     1.47262e+10 
           2445     1.45228e+10 
           2455     1.42697e+10 
           2465     1.41114e+10 
           2475     1.39373e+10 
           2485     1.37082e+10 
           2495     1.28639e+10 
           2505     1.32447e+10 
           2513     1.21779e+10 
           2518     1.28908e+10 
           2525     1.28927e+10 
           2535     1.27999e+10 
           2545     1.26303e+10 
           2555      1.2448e+10 
           2565     1.22858e+10 
           2575     1.21145e+10 
           2585     1.19521e+10 
           2595     1.17075e+10 
           2605     1.16339e+10 
           2615     1.14404e+10 
           2625     1.13277e+10 
           2635     1.11811e+10 
           2645     1.10186e+10 
           2655     1.08834e+10 
           2665     1.07324e+10 
           2675     1.05396e+10 
           2685     1.04425e+10 
           2695     1.02961e+10 
           2705     1.01913e+10 
           2715     1.00489e+10 
           2725      9.90883e+9 
           2735      9.44871e+9 
           2745      9.67196e+9 
           2755       9.5438e+9 
           2765      9.41624e+9 
           2775      9.30007e+9 
           2785      9.16882e+9 
           2795      9.03146e+9 
           2805       8.9447e+9 
           2815      8.83656e+9 
           2825      8.71368e+9 
           2835      8.61436e+9 
           2845       8.5162e+9 
           2855      8.40858e+9 
           2865      8.29676e+9 
           2875       8.1972e+9 
           2885      8.09883e+9 
           2895      7.99621e+9 
           2910      7.84815e+9 
           2930      7.66413e+9 
           2950      7.47356e+9 
           2970      7.28954e+9 
           2990      7.09924e+9 
           3010      6.93867e+9 
           3030      6.75504e+9 
           3050      6.60883e+9 
           3070      6.45744e+9 
           3090      6.32085e+9 
           3110      6.17593e+9 
           3130      6.03113e+9 
           3150      5.90429e+9 
           3170      5.76666e+9 
           3190      5.63424e+9 
           3210      5.41509e+9 
           3230       5.3959e+9 
           3250      5.27833e+9 
           3270      5.13434e+9 
           3290      5.04392e+9 
           3310      4.93294e+9 
           3330      4.82699e+9 
           3350      4.71043e+9 
           3370      4.62118e+9 
           3390       4.5242e+9 
           3410      4.42659e+9 
           3430      4.34022e+9 
           3450      4.23811e+9 
           3470      4.16061e+9 
           3490      4.07535e+9 
           3510      3.99294e+9 
           3530      3.90821e+9 
           3550      3.82784e+9 
           3570      3.75343e+9 
           3590      3.67462e+9 
           3610      3.59991e+9 
           3630      3.52574e+9 
           3640       3.4248e+9 
           3650      3.10405e+9 
           3670      3.04736e+9 
           3690      2.99451e+9 
           3710      2.95218e+9 
           3730       2.9401e+9 
           3750       2.9391e+9 
           3770      2.93424e+9 
           3790      2.95948e+9 
           3810      2.98325e+9 
           3830      2.81683e+9 
           3850      2.91879e+9 
           3870      2.90329e+9 
           3890      2.62554e+9 
           3910      2.81314e+9 
           3930      2.75189e+9 
           3950      2.71082e+9 
           3970      2.42399e+9 
           3990      2.61154e+9 
           4010      2.57759e+9 
           4030      2.48085e+9 
           4050      2.49523e+9 
           4070      2.44279e+9 
           4090      2.32392e+9 
           4110      2.17321e+9 
           4130      2.30872e+9 
           4150      2.27471e+9 
           4170      2.23908e+9 
           4190      2.18556e+9 
           4210      2.12357e+9 
           4230      2.12463e+9 
           4250      2.08675e+9 
           4270      2.05034e+9 
           4290      2.01489e+9 
           4310      1.97364e+9 
           4330      1.86863e+9 
           4350      1.77912e+9 
           4370      1.87228e+9 
           4390       1.8379e+9 
           4410      1.81375e+9 
           4430      1.78526e+9 
           4450      1.75502e+9 
           4470      1.70982e+9 
           4490      1.69745e+9 
           4510      1.66672e+9 
           4530      1.63602e+9 
           4550      1.57942e+9 
           4570       1.5883e+9 
           4590       1.5621e+9 
           4610      1.53747e+9 
           4630      1.50847e+9 
           4650      1.47096e+9 
           4670      1.46108e+9 
           4690      1.38834e+9 
           4710      1.41518e+9 
           4730      1.39702e+9 
           4750      1.37498e+9 
           4770      1.35328e+9 
           4790      1.33195e+9 
           4810      1.31124e+9 
           4830      1.28758e+9 
           4850      1.23268e+9 
           4870      1.15798e+9 
           4890      1.22671e+9 
           4910      1.21265e+9 
           4930       1.1886e+9 
           4950      1.17649e+9 
           4970      1.15891e+9 
           4990      1.14158e+9 
           5010      1.12121e+9 
           5030      1.10727e+9 
           5050      1.09018e+9 
           5070      1.07482e+9 
           5090      1.05901e+9 
           5110      1.04343e+9 
           5130      1.02804e+9 
           5150        1.013e+9 
           5170       9.9827e+8 
           5190      9.83781e+8 
           5210      9.69538e+8 
           5230      9.55621e+8 
           5250      9.41495e+8 
           5270      9.27798e+8 
           5290      9.15167e+8 
           5310      9.02165e+8 
           5330      8.89349e+8 
           5350      8.76842e+8 
           5370      8.64509e+8 
           5390      8.52349e+8 
           5410      8.21677e+8 
           5430      8.28402e+8 
           5450      8.17321e+8 
           5470       8.0598e+8 
           5490       7.9493e+8 
           5510      7.83735e+8 
           5530      7.73297e+8 
           5550      7.62768e+8 
           5570      7.52284e+8 
           5590      7.41054e+8 
           5610       7.3221e+8 
           5630      7.22359e+8 
           5650      7.12688e+8 
           5670      7.03169e+8 
           5690      6.84432e+8 
           5710      6.39262e+8 
           5730      6.31126e+8 
           5750      6.23098e+8 
           5770        6.153e+8 
           5790      6.07718e+8 
           5810      5.99165e+8 
           5830      5.93931e+8 
           5850      5.88304e+8 
           5870      5.78977e+8 
           5890      5.78126e+8 
           5910      5.73875e+8 
           5930      5.69956e+8 
           5950      5.66482e+8 
           5970      5.63304e+8 
           5990      5.60768e+8 
           6010      5.56739e+8 
           6030      5.52595e+8 
           6050      5.48506e+8 
           6070       5.4174e+8 
           6090      5.35474e+8 
           6110       5.2911e+8 
           6130      5.22814e+8 
           6150      5.16938e+8 
           6170      5.09111e+8 
           6190      5.04293e+8 
           6210      4.98303e+8 
           6230       4.9043e+8 
           6250      4.85706e+8 
           6270      4.80303e+8 
           6290      4.74482e+8 
           6310      4.66285e+8 
           6330       4.6279e+8 
           6350      4.57552e+8 
           6370      4.52084e+8 
           6390      4.46268e+8 
           6410      4.38243e+8 
           6430       4.3606e+8 
           6450      4.30904e+8 
           6470      4.25807e+8 
           6490       4.2087e+8 
           6510      4.15344e+8 
           6530      4.06435e+8 
           6550       3.9897e+8 
           6570      3.71923e+8 
           6590      3.95258e+8 
           6610      3.92344e+8 
           6630       3.8783e+8 
           6650      3.83387e+8 
           6670      3.76875e+8 
           6690      3.69086e+8 
           6710      3.70136e+8 
           6730       3.6611e+8 
           6750      3.61942e+8 
           6770       3.5794e+8 
           6790      3.53932e+8 
           6810      3.49963e+8 
           6830      3.46041e+8 
           6850      3.42177e+8 
           6870      3.38304e+8 
           6890       3.2967e+8 
           6910      3.30533e+8 
           6930      3.27256e+8 
           6950      3.23653e+8 
           6970      3.20097e+8 
           6990       3.1659e+8 
           7010      3.13091e+8 
           7030      3.09575e+8 
           7050      3.06295e+8 
           7070      3.01687e+8 
           7090      2.99769e+8 
           7110      2.96528e+8 
           7130      2.93333e+8 
           7150      2.90205e+8 
           7170      2.83972e+8 
           7190      2.82037e+8 
           7210      2.81018e+8 
           7230      2.78039e+8 
           7250      2.75102e+8 
           7270        2.722e+8 
           7290      2.68908e+8 
           7310      2.66459e+8 
           7330      2.63724e+8 
           7350      2.60972e+8 
           7370      2.58233e+8 
           7390      2.55568e+8 
           7410        2.529e+8 
           7430      2.50312e+8 
           7450       2.4766e+8 
           7470      2.45188e+8 
           7490      2.42524e+8 
           7510      2.40165e+8 
           7530      2.37742e+8 
           7550      2.35321e+8 
           7570      2.32915e+8 
           7590      2.26366e+8 
           7610      2.27832e+8 
           7630      2.25947e+8 
           7650      2.23666e+8 
           7670      2.21438e+8 
           7690      2.19135e+8 
           7710      2.16998e+8 
           7730      2.14754e+8 
           7750      2.12744e+8 
           7770      2.10639e+8 
           7790       2.0856e+8 
           7810      2.06505e+8 
           7830      2.04474e+8 
           7850      2.02431e+8 
           7870      2.00485e+8 
           7890      1.98538e+8 
           7910      1.96626e+8 
           7930      1.94719e+8 
           7950      1.92834e+8 
           7970      1.90919e+8 
           7990      1.89126e+8 
           8010      1.87314e+8 
           8030      1.85488e+8 
           8050      1.83742e+8 
           8070      1.81988e+8 
           8090      1.80254e+8 
           8110      1.78542e+8 
           8130      1.76849e+8 
