# Kurucz ODFNEW /NOVER models
# teff = 40000 K (value for the effective temperature for the model. Temperatures are given in K)
# logg = 4.50 log(cm/s2) (value for Log(G) for the model.)
# meta = -0.5  (value for the Metallicity for the model.)
# lh = 1.25  (l/Hp where l is the  mixing length of the convective element and Hp is the pressure scale height)
# vtur = 2.0 km/s (Microturbulence velocity)
#
# column 1: WAVELENGTH (ANGSTROM), Wavelength in Angstrom
# column 2: FLUX (ERG/CM2/S/A), Flux in erg/cm2/s/A
              0               0 
           90.9      4.13561e-9 
           93.5      1.39928e-8 
           96.1      4.43459e-8 
           97.7      8.83168e-8 
           99.6      1.93983e-7 
            102      5.04734e-7 
          103.8      1.00861e-6 
          105.6      1.97305e-6 
          107.7      4.20891e-6 
          110.4      1.07336e-5 
            114      3.51657e-5 
          117.8     0.000114981 
          121.3     0.000323122 
          124.8     0.000862401 
          127.1      0.00160198 
          128.4      0.00225215 
          130.5      0.00385395 
          132.4      0.00618379 
          133.9      0.00891082 
          136.6       0.0168743 
          139.8       0.0350571 
          143.3       0.0752107 
          147.2        0.168256 
            151        0.360407 
          155.2         0.79719 
          158.8          1.5265 
            162         2.65953 
            166         5.18899 
          170.3          10.259 
          173.4         16.4474 
          176.8         27.1705 
          180.2         43.9993 
          181.7          53.903 
          186.1         97.6352 
            191         182.567 
          193.9         260.845 
          198.4         443.951 
          201.8         652.342 
            205         928.715 
          210.5         1659.95 
          216.2         2930.75 
          219.8          4147.6 
            223         5579.26 
          226.8         7826.35 
            230      3.97363e+6 
            234      1.69479e+7 
            240      2.91475e+7 
          246.5      5.22268e+7 
          252.4      1.16114e+8 
          256.8      1.52106e+8 
            260      3.18449e+8 
            264       2.2737e+9 
          268.5      3.26624e+9 
          273.5      3.96517e+9 
          278.5      2.56996e+9 
            284      6.05152e+9 
            290      8.10576e+9 
            296      5.15415e+9 
            301      2.26223e+9 
            308      8.56405e+9 
            318       7.6662e+9 
            328     1.10112e+10 
            338      9.29426e+9 
            348     1.01916e+10 
            357     2.19129e+10 
            366     3.58885e+10 
            375     4.22045e+10 
            385     3.88612e+10 
            395     5.40256e+10 
            405     6.73601e+10 
            414     6.60371e+10 
            422     6.36372e+10 
            430     5.87773e+10 
            441     6.65356e+10 
            451     6.83131e+10 
            460      6.0818e+10 
            470      6.1283e+10 
            480     6.64625e+10 
            490     5.57344e+10 
            500     6.68756e+10 
            506     6.33246e+10 
            512     1.12664e+11 
            520     1.04172e+11 
            530     9.54176e+10 
            540     8.44593e+10 
            550     7.93674e+10 
            560     1.00804e+11 
            570     1.05828e+11 
            580     1.00725e+11 
            590     1.01797e+11 
            600     8.89409e+10 
            610     8.79369e+10 
            620     1.03219e+11 
            630     9.80315e+10 
            640     1.02608e+11 
            650     9.76466e+10 
            658     8.87955e+10 
            665     9.72014e+10 
            675     1.00552e+11 
            685     8.96092e+10 
            695     9.65799e+10 
            705     8.57038e+10 
            716     9.63182e+10 
            726     9.57129e+10 
            735     9.53289e+10 
            745     9.07778e+10 
            755      8.8997e+10 
            765     8.43037e+10 
            775     8.66331e+10 
            785     8.25263e+10 
            795     8.46776e+10 
            805       8.336e+10 
            815     8.28866e+10 
            825       8.255e+10 
            835     7.39546e+10 
            845     7.93692e+10 
            855     7.70802e+10 
            865     7.79616e+10 
            875     7.70461e+10 
            885      7.5536e+10 
            895     7.44876e+10 
            905     7.23585e+10 
            915     5.86181e+10 
            925     1.01876e+11 
            935     1.35579e+11 
            945     1.59079e+11 
            955     1.72403e+11 
            965     1.88089e+11 
            975     1.38569e+11 
            985     1.70177e+11 
            995     1.54657e+11 
           1005     1.56466e+11 
           1015     1.58514e+11 
           1025     1.34212e+11 
           1035      1.5608e+11 
           1045     1.58371e+11 
           1055     1.54202e+11 
           1065     1.45843e+11 
           1075     1.44766e+11 
           1085     1.35136e+11 
           1095     1.38847e+11 
           1105     1.33954e+11 
           1115     1.30871e+11 
           1125     1.23926e+11 
           1135     1.26291e+11 
           1145     1.23853e+11 
           1155     1.17727e+11 
           1165     1.13489e+11 
           1175     9.89342e+10 
           1185     1.06178e+11 
           1195     1.03259e+11 
           1205     1.00732e+11 
           1215      8.3238e+10 
           1225     9.53811e+10 
           1235     9.52087e+10 
           1245     9.28151e+10 
           1255     9.22962e+10 
           1265     9.16409e+10 
           1275     9.06192e+10 
           1285     8.91892e+10 
           1295     8.68601e+10 
           1305     8.44389e+10 
           1315      8.3822e+10 
           1325     8.17246e+10 
           1335     8.01369e+10 
           1345     7.89872e+10 
           1355     7.59872e+10 
           1365     7.34827e+10 
           1375     7.12939e+10 
           1385     7.03841e+10 
           1395     6.73903e+10 
           1405     6.47438e+10 
           1415     6.71547e+10 
           1425     6.29891e+10 
           1435     6.40318e+10 
           1442     6.23388e+10 
           1447     6.18981e+10 
           1455     6.00982e+10 
           1465     5.95157e+10 
           1475     5.84811e+10 
           1485     5.82991e+10 
           1495     5.66251e+10 
           1505     5.61628e+10 
           1512     5.56622e+10 
           1517     5.46003e+10 
           1525     5.37129e+10 
           1535     5.03262e+10 
           1545     4.47368e+10 
           1555      4.4869e+10 
           1565     4.68093e+10 
           1575      4.7292e+10 
           1585     4.66027e+10 
           1595     4.59639e+10 
           1605     4.37682e+10 
           1615     4.25331e+10 
           1625     4.22225e+10 
           1635     4.15341e+10 
           1645     3.98166e+10 
           1655     4.12529e+10 
           1665     4.04708e+10 
           1672     3.86124e+10 
           1677     4.07229e+10 
           1685     3.98343e+10 
           1695     3.91715e+10 
           1705     3.81705e+10 
           1715     3.68043e+10 
           1725     3.62242e+10 
           1735     3.66478e+10 
           1745     3.59952e+10 
           1755     3.51126e+10 
           1765     3.46965e+10 
           1775     3.40663e+10 
           1785     3.37261e+10 
           1795     3.28531e+10 
           1805     3.23977e+10 
           1815     3.18323e+10 
           1825      3.1212e+10 
           1835     3.09074e+10 
           1845      3.0354e+10 
           1855     2.98448e+10 
           1865     2.93566e+10 
           1875     2.87132e+10 
           1885     2.82154e+10 
           1895     2.80631e+10 
           1905     2.76675e+10 
           1915     2.71872e+10 
           1925     2.61918e+10 
           1935     2.63504e+10 
           1945     2.59517e+10 
           1955     2.52414e+10 
           1967     2.49752e+10 
           1976     2.46199e+10 
           1984      2.4349e+10 
           1995     2.38777e+10 
           2005     2.35745e+10 
           2015     2.31918e+10 
           2025     2.28126e+10 
           2035     2.24252e+10 
           2045     2.20001e+10 
           2055     1.66731e+10 
           2065     1.59996e+10 
           2074     1.63401e+10 
           2078     1.67109e+10 
           2085     1.78953e+10 
           2095     1.97162e+10 
           2105     1.99935e+10 
           2115     1.98496e+10 
           2125     1.94671e+10 
           2135     1.92224e+10 
           2145     1.89535e+10 
           2155     1.89646e+10 
           2165     1.80391e+10 
           2175     1.85171e+10 
           2185     1.76725e+10 
           2195     1.79959e+10 
           2205     1.77361e+10 
           2215     1.68807e+10 
           2225     1.71988e+10 
           2235     1.69563e+10 
           2245     1.66725e+10 
           2255     1.59359e+10 
           2265     1.62024e+10 
           2275     1.59867e+10 
           2285     1.56848e+10 
           2295     1.52029e+10 
           2305     1.48068e+10 
           2315     1.49941e+10 
           2325     1.48354e+10 
           2335     1.46236e+10 
           2345     1.43902e+10 
           2355     1.41677e+10 
           2365     1.39579e+10 
           2375     1.37237e+10 
           2385     1.30658e+10 
           2395     1.32623e+10 
           2405      1.3136e+10 
           2415     1.29622e+10 
           2425     1.28318e+10 
           2435     1.26339e+10 
           2445     1.24633e+10 
           2455     1.22551e+10 
           2465     1.21168e+10 
           2475     1.19711e+10 
           2485       1.177e+10 
           2495     1.08056e+10 
           2505     1.14057e+10 
           2513     1.06323e+10 
           2518      1.1094e+10 
           2525     1.11093e+10 
           2535     1.10178e+10 
           2545     1.08744e+10 
           2555      1.0719e+10 
           2565     1.05817e+10 
           2575     1.04384e+10 
           2585     1.03019e+10 
           2595     1.01002e+10 
           2605     1.00344e+10 
           2615      9.87247e+9 
           2625      9.77551e+9 
           2635      9.65155e+9 
           2645      9.51352e+9 
           2655      9.39978e+9 
           2665      9.26997e+9 
           2675      9.10338e+9 
           2685      9.02681e+9 
           2695      8.90186e+9 
           2705      8.81507e+9 
           2715      8.69044e+9 
           2725      8.57604e+9 
           2735      8.24096e+9 
           2745      8.37554e+9 
           2755      8.26522e+9 
           2765      8.15232e+9 
           2775      8.05941e+9 
           2785      7.94675e+9 
           2795      7.82248e+9 
           2805      7.75482e+9 
           2815      7.66419e+9 
           2825      7.55762e+9 
           2835      7.47347e+9 
           2845      7.39216e+9 
           2855      7.30025e+9 
           2865      7.20395e+9 
           2875      7.11929e+9 
           2885      7.03517e+9 
           2895      6.94844e+9 
           2910      6.81959e+9 
           2930      6.66361e+9 
           2950      6.49824e+9 
           2970      6.34313e+9 
           2990      6.17806e+9 
           3010       6.0401e+9 
           3030      5.88184e+9 
           3050      5.75796e+9 
           3070      5.63202e+9 
           3090      5.51081e+9 
           3110       5.3876e+9 
           3130      5.26436e+9 
           3150       5.1552e+9 
           3170      5.03636e+9 
           3190      4.92232e+9 
           3210      4.74931e+9 
           3230       4.7181e+9 
           3250      4.61743e+9 
           3270      4.49206e+9 
           3290      4.41462e+9 
           3310      4.31848e+9 
           3330      4.22767e+9 
           3350      4.12565e+9 
           3370      4.04963e+9 
           3390      3.96757e+9 
           3410      3.88324e+9 
           3430      3.80865e+9 
           3450      3.71905e+9 
           3470      3.65252e+9 
           3490      3.57829e+9 
           3510      3.50706e+9 
           3530      3.43295e+9 
           3550      3.36328e+9 
           3570          3.3e+9 
           3590      3.23002e+9 
           3610      3.16542e+9 
           3630       3.1006e+9 
           3640       3.0199e+9 
           3650      2.75637e+9 
           3670      2.70684e+9 
           3690      2.66283e+9 
           3710      2.62965e+9 
           3730       2.6207e+9 
           3750      2.62914e+9 
           3770      2.62261e+9 
           3790      2.64475e+9 
           3810      2.65962e+9 
           3830      2.50525e+9 
           3850      2.60388e+9 
           3870      2.58081e+9 
           3890      2.35139e+9 
           3910      2.50413e+9 
           3930      2.44016e+9 
           3950      2.41042e+9 
           3970      2.17394e+9 
           3990       2.3258e+9 
           4010      2.28911e+9 
           4030      2.20586e+9 
           4050      2.21456e+9 
           4070      2.16892e+9 
           4090      2.07809e+9 
           4110      1.94626e+9 
           4130      2.05212e+9 
           4150      2.01839e+9 
           4170      1.98839e+9 
           4190      1.94604e+9 
           4210      1.89333e+9 
           4230      1.88802e+9 
           4250      1.85455e+9 
           4270      1.82242e+9 
           4290      1.79155e+9 
           4310      1.75723e+9 
           4330      1.67682e+9 
           4350      1.59568e+9 
           4370      1.66905e+9 
           4390      1.63427e+9 
           4410      1.61386e+9 
           4430      1.58926e+9 
           4450      1.56295e+9 
           4470      1.52205e+9 
           4490      1.51203e+9 
           4510      1.48426e+9 
           4530      1.45955e+9 
           4550      1.41488e+9 
           4570      1.41598e+9 
           4590      1.39246e+9 
           4610      1.37076e+9 
           4630      1.34493e+9 
           4650      1.30865e+9 
           4670       1.3038e+9 
           4690      1.24435e+9 
           4710      1.26185e+9 
           4730      1.24719e+9 
           4750       1.2277e+9 
           4770      1.20853e+9 
           4790       1.1898e+9 
           4810      1.17137e+9 
           4830      1.15214e+9 
           4850      1.11012e+9 
           4870       1.0422e+9 
           4890      1.09872e+9 
           4910      1.08406e+9 
           4930      1.06189e+9 
           4950      1.05185e+9 
           4970      1.03644e+9 
           4990      1.02109e+9 
           5010      1.00213e+9 
           5030      9.90571e+8 
           5050      9.75147e+8 
           5070      9.61872e+8 
           5090      9.47842e+8 
           5110       9.3403e+8 
           5130      9.20351e+8 
           5150      9.07007e+8 
           5170      8.93915e+8 
           5190      8.81054e+8 
           5210       8.6843e+8 
           5230      8.56072e+8 
           5250      8.43412e+8 
           5270      8.31244e+8 
           5290      8.20124e+8 
           5310      8.08558e+8 
           5330      7.97157e+8 
           5350       7.8605e+8 
           5370      7.75083e+8 
           5390      7.64273e+8 
           5410      7.40754e+8 
           5430      7.43266e+8 
           5450      7.33103e+8 
           5470      7.23006e+8 
           5490      7.13173e+8 
           5510       7.0319e+8 
           5530      6.93924e+8 
           5550      6.84543e+8 
           5570      6.75178e+8 
           5590      6.65087e+8 
           5610      6.57325e+8 
           5630       6.4855e+8 
           5650      6.39931e+8 
           5670      6.31441e+8 
           5690      6.15093e+8 
           5710      5.78105e+8 
           5730      5.70784e+8 
           5750       5.6355e+8 
           5770      5.56583e+8 
           5790      5.49888e+8 
           5810      5.42573e+8 
           5830      5.38035e+8 
           5850       5.3355e+8 
           5870       5.2443e+8 
           5890      5.24949e+8 
           5910      5.21249e+8 
           5930      5.17867e+8 
           5950      5.14945e+8 
           5970      5.12081e+8 
           5990      5.09497e+8 
           6010      5.04871e+8 
           6030      4.99373e+8 
           6050      4.94604e+8 
           6070      4.88059e+8 
           6090      4.82603e+8 
           6110      4.76208e+8 
           6130      4.70371e+8 
           6150      4.65146e+8 
           6170      4.58047e+8 
           6190      4.53892e+8 
           6210      4.48394e+8 
           6230      4.41345e+8 
           6250      4.37271e+8 
           6270      4.32304e+8 
           6290      4.27102e+8 
           6310      4.19781e+8 
           6330      4.16774e+8 
           6350      4.11948e+8 
           6370      4.07055e+8 
           6390      4.02073e+8 
           6410      3.94746e+8 
           6430      3.92785e+8 
           6450       3.8809e+8 
           6470      3.83516e+8 
           6490      3.79109e+8 
           6510      3.74462e+8 
           6530      3.66694e+8 
           6550      3.61202e+8 
           6570      3.36601e+8 
           6590      3.56846e+8 
           6610      3.53569e+8 
           6630      3.49528e+8 
           6650      3.45556e+8 
           6670      3.39827e+8 
           6690      3.33042e+8 
           6710      3.33654e+8 
           6730      3.30036e+8 
           6750      3.26306e+8 
           6770      3.22745e+8 
           6790      3.19153e+8 
           6810      3.15592e+8 
           6830      3.12084e+8 
           6850      3.08609e+8 
           6870      3.05171e+8 
           6890      2.98181e+8 
           6910      2.98367e+8 
           6930      2.95227e+8 
           6950      2.91994e+8 
           6970      2.88808e+8 
           6990      2.85655e+8 
           7010      2.82509e+8 
           7030      2.79318e+8 
           7050      2.76409e+8 
           7070      2.71901e+8 
           7090      2.70556e+8 
           7110       2.6765e+8 
           7130       2.6478e+8 
           7150      2.61974e+8 
           7170      2.56924e+8 
           7190      2.55219e+8 
           7210      2.53726e+8 
           7230      2.51034e+8 
           7250      2.48404e+8 
           7270      2.45799e+8 
           7290      2.42666e+8 
           7310      2.40634e+8 
           7330       2.3818e+8 
           7350      2.35707e+8 
           7370      2.33251e+8 
           7390      2.30858e+8 
           7410      2.28454e+8 
           7430      2.26127e+8 
           7450      2.23747e+8 
           7470      2.21525e+8 
           7490      2.19101e+8 
           7510         2.17e+8 
           7530      2.14826e+8 
           7550      2.12651e+8 
           7570      2.10491e+8 
           7590      2.05492e+8 
           7610      2.06105e+8 
           7630       2.0421e+8 
           7650      2.02165e+8 
           7670      2.00165e+8 
           7690      1.98073e+8 
           7710       1.9616e+8 
           7730      1.94138e+8 
           7750      1.92347e+8 
           7770      1.90453e+8 
           7790      1.88576e+8 
           7810      1.86728e+8 
           7830      1.84903e+8 
           7850      1.83069e+8 
           7870      1.81307e+8 
           7890       1.7956e+8 
           7910      1.77846e+8 
           7930      1.76129e+8 
           7950      1.74428e+8 
           7970      1.72705e+8 
           7990      1.71092e+8 
           8010      1.69458e+8 
           8030      1.67809e+8 
           8050      1.66243e+8 
           8070      1.64663e+8 
           8090      1.63101e+8 
           8110      1.61559e+8 
           8130      1.60035e+8 
