# Kurucz ODFNEW /NOVER models
# teff = 43000 K (value for the effective temperature for the model. Temperatures are given in K)
# logg = 5.00 log(cm/s2) (value for Log(G) for the model.)
# meta = -0.5  (value for the Metallicity for the model.)
# lh = 1.25  (l/Hp where l is the  mixing length of the convective element and Hp is the pressure scale height)
# vtur = 2.0 km/s (Microturbulence velocity)
#
# column 1: WAVELENGTH (ANGSTROM), Wavelength in Angstrom
# column 2: FLUX (ERG/CM2/S/A), Flux in erg/cm2/s/A
              0               0 
           90.9      1.37515e-6 
           93.5      4.07097e-6 
           96.1      1.13184e-5 
           97.7      2.08752e-5 
           99.6      4.18687e-5 
            102      9.73546e-5 
          103.8     0.000179102 
          105.6     0.000323044 
          107.7     0.000627945 
          110.4      0.00142511 
            114      0.00401659 
          117.8       0.0112705 
          121.3       0.0276831 
          124.8       0.0648967 
          127.1         0.11106 
          128.4        0.149215 
          130.5        0.237604 
          132.4        0.357931 
          133.9        0.491264 
          136.6        0.853821 
          139.8         1.61085 
          143.3          3.1221 
          147.2         6.25604 
            151         12.1761 
          155.2         24.2832 
          158.8         42.7606 
            162         69.4865 
            166         124.651 
          170.3         225.684 
          173.4         340.687 
          176.8         529.344 
          180.2         807.383 
          181.7         960.424 
          186.1         1622.85 
            191         2808.57 
          193.9         3845.35 
          198.4         6127.88 
          201.8         8585.01 
            205         11721.9 
          210.5           19531 
          216.2         32171.9 
          219.8         43701.6 
            223         56668.9 
          226.8         76227.6 
            230      1.75945e+7 
            234      8.29061e+7 
            240      1.74329e+8 
          246.5      4.53859e+8 
          252.4      1.49448e+9 
          256.8      2.13135e+9 
            260      3.70738e+9 
            264     1.55766e+10 
          268.5       2.171e+10 
          273.5     2.57831e+10 
          278.5     1.82439e+10 
            284     3.62326e+10 
            290     4.61617e+10 
            296     3.31139e+10 
            301     1.35684e+10 
            308     3.47346e+10 
            318     2.45256e+10 
            328     3.25865e+10 
            338     2.50888e+10 
            348     2.62219e+10 
            357      5.4531e+10 
            366     8.47951e+10 
            375     9.85139e+10 
            385     8.92587e+10 
            395     1.19832e+11 
            405     1.45428e+11 
            414     1.41805e+11 
            422     1.34395e+11 
            430     1.24411e+11 
            441      1.3861e+11 
            451      1.4201e+11 
            460     1.26005e+11 
            470     1.26591e+11 
            480     1.34943e+11 
            490     1.15296e+11 
            500     1.33512e+11 
            506     1.20719e+11 
            512     1.83462e+11 
            520     1.70588e+11 
            530     1.57934e+11 
            540     1.38948e+11 
            550     1.29707e+11 
            560     1.60062e+11 
            570     1.64746e+11 
            580     1.57232e+11 
            590     1.57673e+11 
            600     1.41274e+11 
            610     1.35971e+11 
            620     1.55151e+11 
            630     1.47095e+11 
            640     1.52357e+11 
            650     1.44647e+11 
            658      1.3298e+11 
            665     1.43255e+11 
            675     1.45789e+11 
            685     1.32282e+11 
            695     1.39414e+11 
            705     1.26399e+11 
            716      1.3686e+11 
            726     1.35775e+11 
            735     1.34416e+11 
            745     1.28517e+11 
            755     1.25452e+11 
            765     1.19065e+11 
            775     1.21062e+11 
            785      1.1568e+11 
            795       1.173e+11 
            805     1.15491e+11 
            815     1.14399e+11 
            825     1.13347e+11 
            835     1.03133e+11 
            845      1.0862e+11 
            855     1.05136e+11 
            865     1.05835e+11 
            875      1.0434e+11 
            885     1.01948e+11 
            895      1.0028e+11 
            905       9.728e+10 
            915      7.4741e+10 
            925     1.19594e+11 
            935     1.56548e+11 
            945     1.90899e+11 
            955     2.10026e+11 
            965     2.37234e+11 
            975     1.71161e+11 
            985     2.17634e+11 
            995     1.95267e+11 
           1005     2.00942e+11 
           1015     2.01401e+11 
           1025     1.61421e+11 
           1035      1.9748e+11 
           1045     2.00353e+11 
           1055     1.95046e+11 
           1065     1.83445e+11 
           1075     1.82786e+11 
           1085      1.6749e+11 
           1095      1.7459e+11 
           1105     1.67964e+11 
           1115      1.6424e+11 
           1125     1.55806e+11 
           1135     1.57854e+11 
           1145     1.54589e+11 
           1155     1.47094e+11 
           1165     1.40722e+11 
           1175     1.25184e+11 
           1185     1.32489e+11 
           1195     1.28492e+11 
           1205     1.24936e+11 
           1215     9.90883e+10 
           1225     1.18011e+11 
           1235     1.17004e+11 
           1245     1.14087e+11 
           1255     1.13694e+11 
           1265     1.12398e+11 
           1275     1.10742e+11 
           1285     1.08808e+11 
           1295     1.05923e+11 
           1305     1.02857e+11 
           1315     1.01663e+11 
           1325     9.89987e+10 
           1335     9.71447e+10 
           1345     9.53349e+10 
           1355     9.17971e+10 
           1365     8.85605e+10 
           1375     8.57625e+10 
           1385     8.46659e+10 
           1395     8.14239e+10 
           1405     7.81964e+10 
           1415     8.06718e+10 
           1425     7.60537e+10 
           1435      7.6966e+10 
           1442      7.4726e+10 
           1447     7.41456e+10 
           1455     7.21136e+10 
           1465     7.12484e+10 
           1475      6.9896e+10 
           1485     6.96514e+10 
           1495     6.76793e+10 
           1505     6.69143e+10 
           1512      6.6291e+10 
           1517      6.4938e+10 
           1525      6.3967e+10 
           1535     6.02358e+10 
           1545     5.40439e+10 
           1555     5.40724e+10 
           1565     5.59922e+10 
           1575     5.61598e+10 
           1585     5.52269e+10 
           1595     5.44447e+10 
           1605      5.2047e+10 
           1615     5.05522e+10 
           1625     5.00575e+10 
           1635     4.89582e+10 
           1645     4.67427e+10 
           1655     4.86128e+10 
           1665     4.77464e+10 
           1672     4.57345e+10 
           1677     4.76778e+10 
           1685     4.67367e+10 
           1695     4.59441e+10 
           1705     4.47446e+10 
           1715      4.3129e+10 
           1725     4.24509e+10 
           1735     4.27963e+10 
           1745     4.19943e+10 
           1755     4.09789e+10 
           1765      4.0418e+10 
           1775     3.96637e+10 
           1785     3.92275e+10 
           1795     3.82259e+10 
           1805     3.76264e+10 
           1815     3.69626e+10 
           1825     3.62293e+10 
           1835     3.57874e+10 
           1845     3.51405e+10 
           1855     3.45187e+10 
           1865     3.39359e+10 
           1875     3.32116e+10 
           1885     3.26027e+10 
           1895     3.23695e+10 
           1905     3.18604e+10 
           1915     3.12965e+10 
           1925     3.01801e+10 
           1935     3.02904e+10 
           1945     2.98136e+10 
           1955     2.90619e+10 
           1967     2.86684e+10 
           1976     2.82361e+10 
           1984     2.79103e+10 
           1995     2.73696e+10 
           2005     2.69773e+10 
           2015     2.65265e+10 
           2025     2.60851e+10 
           2035     2.56319e+10 
           2045     2.51413e+10 
           2055     1.88748e+10 
           2065     1.80042e+10 
           2074     1.81785e+10 
           2078     1.84941e+10 
           2085     1.94318e+10 
           2095     2.14587e+10 
           2105     2.26258e+10 
           2115     2.25841e+10 
           2125     2.21518e+10 
           2135     2.18415e+10 
           2145     2.15229e+10 
           2155     2.15053e+10 
           2165     2.04125e+10 
           2175     2.10296e+10 
           2185      1.9938e+10 
           2195     2.04159e+10 
           2205     2.01405e+10 
           2215     1.89854e+10 
           2225     1.95251e+10 
           2235      1.9261e+10 
           2245     1.89112e+10 
           2255     1.78911e+10 
           2265     1.83789e+10 
           2275     1.81333e+10 
           2285     1.77852e+10 
           2295     1.72865e+10 
           2305     1.66036e+10 
           2315     1.69666e+10 
           2325     1.67979e+10 
           2335     1.65549e+10 
           2345     1.62879e+10 
           2355     1.60303e+10 
           2365     1.57886e+10 
           2375     1.55143e+10 
           2385     1.46381e+10 
           2395     1.49831e+10 
           2405      1.4834e+10 
           2415     1.46391e+10 
           2425      1.4491e+10 
           2435      1.4263e+10 
           2445     1.40665e+10 
           2455      1.3824e+10 
           2465     1.36693e+10 
           2475        1.35e+10 
           2485     1.32781e+10 
           2495     1.23991e+10 
           2505     1.28268e+10 
           2513     1.17985e+10 
           2518     1.24796e+10 
           2525     1.24974e+10 
           2535     1.24013e+10 
           2545     1.22366e+10 
           2555     1.20596e+10 
           2565     1.19027e+10 
           2575     1.17378e+10 
           2585     1.15812e+10 
           2595     1.13494e+10 
           2605     1.12741e+10 
           2615     1.10889e+10 
           2625     1.09778e+10 
           2635     1.08365e+10 
           2645     1.06788e+10 
           2655     1.05483e+10 
           2665     1.04014e+10 
           2675     1.02143e+10 
           2685     1.01216e+10 
           2695       9.9797e+9 
           2705      9.87876e+9 
           2715      9.73969e+9 
           2725       9.6034e+9 
           2735      9.16163e+9 
           2745      9.37547e+9 
           2755      9.25294e+9 
           2765      9.12601e+9 
           2775      9.01779e+9 
           2785      8.89097e+9 
           2795       8.7537e+9 
           2805      8.67225e+9 
           2815      8.56891e+9 
           2825      8.44887e+9 
           2835      8.35234e+9 
           2845       8.2588e+9 
           2855      8.15483e+9 
           2865      8.04616e+9 
           2875      7.95017e+9 
           2885      7.85486e+9 
           2895       7.7553e+9 
           2910      7.61059e+9 
           2930      7.43287e+9 
           2950      7.24673e+9 
           2970      7.07129e+9 
           2990      6.88599e+9 
           3010      6.73076e+9 
           3030      6.55232e+9 
           3050      6.41121e+9 
           3070      6.26719e+9 
           3090      6.13187e+9 
           3110      5.99249e+9 
           3130       5.8527e+9 
           3150      5.72927e+9 
           3170      5.59572e+9 
           3190      5.46654e+9 
           3210      5.25713e+9 
           3230      5.23737e+9 
           3250       5.1239e+9 
           3270      4.98354e+9 
           3290      4.89633e+9 
           3310      4.78853e+9 
           3330      4.68633e+9 
           3350      4.57279e+9 
           3370      4.48651e+9 
           3390       4.3934e+9 
           3410      4.29926e+9 
           3430      4.21532e+9 
           3450      4.11564e+9 
           3470      4.04111e+9 
           3490      3.95843e+9 
           3510      3.87827e+9 
           3530      3.79576e+9 
           3550      3.71782e+9 
           3570      3.64644e+9 
           3590      3.56879e+9 
           3610      3.49669e+9 
           3630      3.42426e+9 
           3640      3.32956e+9 
           3650      3.02431e+9 
           3670      2.96906e+9 
           3690      2.91759e+9 
           3710      2.87445e+9 
           3730      2.86185e+9 
           3750      2.85926e+9 
           3770      2.85128e+9 
           3790      2.87634e+9 
           3810      2.90124e+9 
           3830      2.73362e+9 
           3850      2.84177e+9 
           3870      2.82707e+9 
           3890      2.54886e+9 
           3910      2.74094e+9 
           3930      2.68262e+9 
           3950      2.64104e+9 
           3970      2.35297e+9 
           3990      2.54457e+9 
           4010      2.51152e+9 
           4030       2.4159e+9 
           4050      2.43276e+9 
           4070      2.38025e+9 
           4090      2.26154e+9 
           4110      2.11192e+9 
           4130      2.24953e+9 
           4150      2.21674e+9 
           4170      2.18318e+9 
           4190      2.13108e+9 
           4210      2.07122e+9 
           4230       2.0716e+9 
           4250      2.03484e+9 
           4270       1.9992e+9 
           4290      1.96448e+9 
           4310       1.9241e+9 
           4330      1.81914e+9 
           4350      1.73004e+9 
           4370      1.82551e+9 
           4390      1.79071e+9 
           4410      1.76873e+9 
           4430      1.74107e+9 
           4450      1.71176e+9 
           4470      1.66493e+9 
           4490      1.65551e+9 
           4510       1.6253e+9 
           4530      1.59567e+9 
           4550       1.5408e+9 
           4570      1.54926e+9 
           4590      1.52356e+9 
           4610      1.49963e+9 
           4630      1.47111e+9 
           4650      1.43334e+9 
           4670      1.42505e+9 
           4690      1.35476e+9 
           4710       1.3795e+9 
           4730      1.36292e+9 
           4750      1.34139e+9 
           4770      1.32028e+9 
           4790      1.29952e+9 
           4810      1.27919e+9 
           4830      1.25604e+9 
           4850      1.20091e+9 
           4870      1.12665e+9 
           4890      1.19656e+9 
           4910      1.18313e+9 
           4930      1.15856e+9 
           4950      1.14786e+9 
           4970      1.13082e+9 
           4990      1.11391e+9 
           5010      1.09343e+9 
           5030      1.08042e+9 
           5050      1.06362e+9 
           5070      1.04884e+9 
           5090       1.0334e+9 
           5110      1.01822e+9 
           5130      1.00322e+9 
           5150      9.88554e+8 
           5170       9.7417e+8 
           5190      9.60046e+8 
           5210      9.46181e+8 
           5230      9.32594e+8 
           5250      9.18792e+8 
           5270      9.05427e+8 
           5290      8.93157e+8 
           5310      8.80469e+8 
           5330      8.67971e+8 
           5350      8.55782e+8 
           5370      8.43751e+8 
           5390      8.31885e+8 
           5410      8.02203e+8 
           5430      8.08546e+8 
           5450      7.97727e+8 
           5470      7.86664e+8 
           5490      7.75881e+8 
           5510      7.64962e+8 
           5530      7.54793e+8 
           5550       7.4452e+8 
           5570      7.34303e+8 
           5590      7.23318e+8 
           5610      7.14711e+8 
           5630      7.05112e+8 
           5650      6.95668e+8 
           5670      6.86375e+8 
           5690      6.68258e+8 
           5710      6.25328e+8 
           5730      6.17381e+8 
           5750      6.09526e+8 
           5770       6.0189e+8 
           5790      5.94467e+8 
           5810      5.86163e+8 
           5830      5.80842e+8 
           5850      5.75314e+8 
           5870      5.65594e+8 
           5890      5.65214e+8 
           5910      5.61017e+8 
           5930      5.57077e+8 
           5950      5.53564e+8 
           5970      5.50347e+8 
           5990      5.47685e+8 
           6010      5.43722e+8 
           6030      5.39522e+8 
           6050      5.35507e+8 
           6070      5.28936e+8 
           6090      5.22787e+8 
           6110      5.16563e+8 
           6130      5.10523e+8 
           6150      5.04647e+8 
           6170      4.97107e+8 
           6190      4.92316e+8 
           6210      4.86464e+8 
           6230      4.78909e+8 
           6250      4.74209e+8 
           6270      4.68899e+8 
           6290      4.63227e+8 
           6310      4.55394e+8 
           6330      4.51835e+8 
           6350      4.46703e+8 
           6370      4.41369e+8 
           6390      4.35796e+8 
           6410      4.28065e+8 
           6430       4.2578e+8 
           6450      4.20699e+8 
           6470      4.15725e+8 
           6490      4.10905e+8 
           6510      4.05532e+8 
           6530      3.96991e+8 
           6550      3.89248e+8 
           6570      3.62383e+8 
           6590       3.8583e+8 
           6610      3.83057e+8 
           6630      3.78677e+8 
           6650      3.74342e+8 
           6670      3.67857e+8 
           6690      3.60458e+8 
           6710        3.614e+8 
           6730      3.57467e+8 
           6750       3.5341e+8 
           6770      3.49516e+8 
           6790      3.45604e+8 
           6810      3.41724e+8 
           6830      3.37902e+8 
           6850      3.34134e+8 
           6870      3.30347e+8 
           6890      3.22172e+8 
           6910      3.22778e+8 
           6930       3.1957e+8 
           6950      3.16056e+8 
           6970      3.12585e+8 
           6990      3.09164e+8 
           7010      3.05746e+8 
           7030      3.02293e+8 
           7050       2.9911e+8 
           7070      2.94421e+8 
           7090       2.9274e+8 
           7110      2.89582e+8 
           7130      2.86463e+8 
           7150      2.83411e+8 
           7170      2.77457e+8 
           7190      2.75522e+8 
           7210      2.74445e+8 
           7230      2.71538e+8 
           7250      2.68666e+8 
           7270      2.65835e+8 
           7290      2.62528e+8 
           7310      2.60234e+8 
           7330       2.5756e+8 
           7350       2.5487e+8 
           7370      2.52199e+8 
           7390      2.49601e+8 
           7410         2.47e+8 
           7430      2.44471e+8 
           7450      2.41884e+8 
           7470       2.3947e+8 
           7490      2.36856e+8 
           7510      2.34561e+8 
           7530        2.322e+8 
           7550      2.29835e+8 
           7570      2.27485e+8 
           7590      2.21239e+8 
           7610      2.22543e+8 
           7630      2.20686e+8 
           7650      2.18458e+8 
           7670      2.16283e+8 
           7690      2.14032e+8 
           7710      2.11947e+8 
           7730      2.09755e+8 
           7750      2.07801e+8 
           7770      2.05747e+8 
           7790      2.03717e+8 
           7810      2.01706e+8 
           7830       1.9973e+8 
           7850      1.97736e+8 
           7870      1.95826e+8 
           7890      1.93932e+8 
           7910      1.92068e+8 
           7930      1.90208e+8 
           7950      1.88364e+8 
           7970        1.865e+8 
           7990      1.84747e+8 
           8010      1.82975e+8 
           8030      1.81188e+8 
           8050      1.79486e+8 
           8070      1.77777e+8 
           8090      1.76087e+8 
           8110      1.74412e+8 
           8130      1.72763e+8 
