# Kurucz ODFNEW /NOVER models
# teff = 40000 K (value for the effective temperature for the model. Temperatures are given in K)
# logg = 5.00 log(cm/s2) (value for Log(G) for the model.)
# meta = -0.5  (value for the Metallicity for the model.)
# lh = 1.25  (l/Hp where l is the  mixing length of the convective element and Hp is the pressure scale height)
# vtur = 2.0 km/s (Microturbulence velocity)
#
# column 1: WAVELENGTH (ANGSTROM), Wavelength in Angstrom
# column 2: FLUX (ERG/CM2/S/A), Flux in erg/cm2/s/A
              0               0 
           90.9      9.27507e-9 
           93.5      3.11523e-8 
           96.1      9.80618e-8 
           97.7       1.9407e-7 
           99.6      4.23436e-7 
            102      1.09192e-6 
          103.8       2.1662e-6 
          105.6      4.20636e-6 
          107.7      8.89041e-6 
          110.4      2.23977e-5 
            114        7.214e-5 
          117.8     0.000231508 
          121.3     0.000639104 
          124.8      0.00167481 
          127.1      0.00307413 
          128.4      0.00429639 
          130.5      0.00727878 
          132.4       0.0115709 
          133.9         0.01655 
          136.6       0.0309365 
          139.8        0.063285 
          143.3        0.133597 
          147.2        0.294008 
            151        0.618802 
          155.2         1.34514 
          158.8         2.53938 
            162         4.36762 
            166         8.39632 
          170.3         16.3593 
          173.4         25.9761 
          176.8          42.426 
          180.2         67.9869 
          181.7          83.083 
          186.1         148.361 
            191         273.783 
          193.9         388.171 
          198.4         653.503 
          201.8          953.13 
            205         1346.55 
          210.5         2378.72 
          216.2         4154.04 
          219.8         5838.73 
            223         7811.27 
          226.8         10892.1 
            230      3.65657e+6 
            234      1.58533e+7 
            240      2.83849e+7 
          246.5      4.73555e+7 
          252.4      8.68945e+7 
          256.8      1.05936e+8 
            260      2.03707e+8 
            264       1.2722e+9 
          268.5      1.90512e+9 
          273.5       2.3281e+9 
          278.5      1.56886e+9 
            284      3.65249e+9 
            290      4.67709e+9 
            296      3.06679e+9 
            301      1.78487e+9 
            308      7.18282e+9 
            318      7.11372e+9 
            328      9.74988e+9 
            338      8.94605e+9 
            348     1.00501e+10 
            357     1.89206e+10 
            366     2.90093e+10 
            375      3.2812e+10 
            385     3.09137e+10 
            395     4.02603e+10 
            405     4.70221e+10 
            414      4.5912e+10 
            422     4.41921e+10 
            430     4.12284e+10 
            441      4.5179e+10 
            451      4.6454e+10 
            460      4.1985e+10 
            470     4.20339e+10 
            480     4.49527e+10 
            490     3.99279e+10 
            500     4.51233e+10 
            506     4.94493e+10 
            512     1.05488e+11 
            520     9.75501e+10 
            530      9.0037e+10 
            540      8.0059e+10 
            550     7.89974e+10 
            560      9.7038e+10 
            570     9.92346e+10 
            580     9.37178e+10 
            590     9.49563e+10 
            600     8.41679e+10 
            610     8.54501e+10 
            620     9.70452e+10 
            630     9.31242e+10 
            640     9.55714e+10 
            650      9.1619e+10 
            658     8.39725e+10 
            665     9.04375e+10 
            675     9.36648e+10 
            685     8.37081e+10 
            695     9.00286e+10 
            705     8.11406e+10 
            716     8.99689e+10 
            726     8.89943e+10 
            735     8.88924e+10 
            745     8.47435e+10 
            755     8.32074e+10 
            765     8.01387e+10 
            775     8.10132e+10 
            785     7.89683e+10 
            795     7.95214e+10 
            805      7.7994e+10 
            815     7.75551e+10 
            825     7.73857e+10 
            835     6.97671e+10 
            845     7.44571e+10 
            855     7.26172e+10 
            865     7.31434e+10 
            875     7.22437e+10 
            885     7.09954e+10 
            895     7.00246e+10 
            905     6.80808e+10 
            915     5.50995e+10 
            925     9.27267e+10 
            935     1.25802e+11 
            945     1.61036e+11 
            955     1.77418e+11 
            965     2.05966e+11 
            975     1.38633e+11 
            985      1.8883e+11 
            995     1.69224e+11 
           1005     1.74023e+11 
           1015     1.75225e+11 
           1025     1.34137e+11 
           1035      1.7021e+11 
           1045      1.7549e+11 
           1055     1.70601e+11 
           1065     1.59564e+11 
           1075     1.58656e+11 
           1085     1.44922e+11 
           1095     1.52182e+11 
           1105      1.4582e+11 
           1115     1.42771e+11 
           1125     1.33496e+11 
           1135     1.37076e+11 
           1145     1.33764e+11 
           1155     1.26959e+11 
           1165     1.22005e+11 
           1175     1.04433e+11 
           1185     1.13538e+11 
           1195     1.10614e+11 
           1205      1.0691e+11 
           1215     8.22121e+10 
           1225     1.00826e+11 
           1235     1.02223e+11 
           1245     9.97445e+10 
           1255      9.8862e+10 
           1265     9.82657e+10 
           1275     9.71684e+10 
           1285      9.5671e+10 
           1295     9.22695e+10 
           1305     9.02258e+10 
           1315     8.98631e+10 
           1325     8.73167e+10 
           1335     8.54238e+10 
           1345     8.41874e+10 
           1355     8.12258e+10 
           1365      7.8661e+10 
           1375     7.63973e+10 
           1385     7.49463e+10 
           1395     7.11518e+10 
           1405      6.8719e+10 
           1415     7.10193e+10 
           1425     6.63063e+10 
           1435     6.75681e+10 
           1442     6.60785e+10 
           1447     6.54768e+10 
           1455     6.34864e+10 
           1465     6.27717e+10 
           1475      6.1482e+10 
           1485     6.13043e+10 
           1495     5.94689e+10 
           1505     5.89023e+10 
           1512     5.82842e+10 
           1517     5.72981e+10 
           1525     5.61283e+10 
           1535     5.23567e+10 
           1545     4.68264e+10 
           1555     4.68758e+10 
           1565     4.85937e+10 
           1575     4.90218e+10 
           1585     4.85058e+10 
           1595     4.78016e+10 
           1605     4.54033e+10 
           1615     4.39601e+10 
           1625     4.37403e+10 
           1635     4.28517e+10 
           1645     4.11336e+10 
           1655     4.27618e+10 
           1665     4.19182e+10 
           1672     3.99264e+10 
           1677     4.22474e+10 
           1685      4.1238e+10 
           1695     4.04684e+10 
           1705      3.9456e+10 
           1715     3.81222e+10 
           1725     3.73233e+10 
           1735     3.77942e+10 
           1745     3.71344e+10 
           1755     3.61852e+10 
           1765     3.57583e+10 
           1775     3.50613e+10 
           1785     3.47382e+10 
           1795     3.38259e+10 
           1805     3.33516e+10 
           1815     3.27553e+10 
           1825     3.20838e+10 
           1835     3.17966e+10 
           1845     3.11529e+10 
           1855     3.06406e+10 
           1865     3.01333e+10 
           1875     2.94644e+10 
           1885     2.89056e+10 
           1895      2.8723e+10 
           1905     2.83599e+10 
           1915     2.78334e+10 
           1925     2.67479e+10 
           1935     2.69763e+10 
           1945      2.6597e+10 
           1955     2.57795e+10 
           1967     2.55672e+10 
           1976     2.52287e+10 
           1984     2.49127e+10 
           1995     2.44021e+10 
           2005     2.41284e+10 
           2015     2.37355e+10 
           2025      2.3339e+10 
           2035     2.29319e+10 
           2045     2.25145e+10 
           2055     1.71004e+10 
           2065     1.63229e+10 
           2074     1.64566e+10 
           2078      1.6696e+10 
           2085     1.74854e+10 
           2095     1.91754e+10 
           2105     2.02571e+10 
           2115     2.02513e+10 
           2125     1.98442e+10 
           2135     1.95902e+10 
           2145     1.93064e+10 
           2155     1.92558e+10 
           2165     1.83341e+10 
           2175     1.88221e+10 
           2185     1.79053e+10 
           2195     1.82828e+10 
           2205     1.80406e+10 
           2215     1.70535e+10 
           2225     1.74857e+10 
           2235     1.72511e+10 
           2245     1.69334e+10 
           2255     1.60634e+10 
           2265     1.64682e+10 
           2275     1.62473e+10 
           2285     1.59265e+10 
           2295     1.53853e+10 
           2305     1.49075e+10 
           2315     1.52099e+10 
           2325     1.50556e+10 
           2335     1.48392e+10 
           2345     1.46033e+10 
           2355     1.43715e+10 
           2365      1.4156e+10 
           2375     1.39114e+10 
           2385     1.31453e+10 
           2395     1.34292e+10 
           2405     1.33223e+10 
           2415     1.31457e+10 
           2425     1.30009e+10 
           2435     1.27997e+10 
           2445      1.2624e+10 
           2455     1.24151e+10 
           2465     1.22724e+10 
           2475      1.2115e+10 
           2485     1.19152e+10 
           2495     1.09412e+10 
           2505      1.1509e+10 
           2513     1.06299e+10 
           2518     1.11795e+10 
           2525     1.12435e+10 
           2535     1.11403e+10 
           2545      1.0989e+10 
           2555     1.08298e+10 
           2565     1.06894e+10 
           2575     1.05435e+10 
           2585     1.04051e+10 
           2595     1.02149e+10 
           2605     1.01355e+10 
           2615      9.97658e+9 
           2625       9.8701e+9 
           2635      9.74322e+9 
           2645      9.60454e+9 
           2655      9.48582e+9 
           2665      9.34954e+9 
           2675      9.18129e+9 
           2685      9.10626e+9 
           2695       8.9724e+9 
           2705      8.88561e+9 
           2715       8.7579e+9 
           2725      8.63135e+9 
           2735      8.26213e+9 
           2745      8.43703e+9 
           2755      8.32823e+9 
           2765      8.20454e+9 
           2775      8.12057e+9 
           2785      8.00797e+9 
           2795      7.86781e+9 
           2805      7.80558e+9 
           2815      7.71744e+9 
           2825       7.6034e+9 
           2835      7.51706e+9 
           2845       7.4401e+9 
           2855      7.34602e+9 
           2865      7.24709e+9 
           2875      7.16348e+9 
           2885      7.07681e+9 
           2895      6.98753e+9 
           2910      6.85562e+9 
           2930      6.69916e+9 
           2950      6.52465e+9 
           2970      6.37431e+9 
           2990      6.20672e+9 
           3010      6.06669e+9 
           3030      5.90768e+9 
           3050      5.78186e+9 
           3070      5.65801e+9 
           3090      5.52937e+9 
           3110      5.40628e+9 
           3130      5.28165e+9 
           3150      5.16887e+9 
           3170      5.04949e+9 
           3190      4.92862e+9 
           3210      4.75405e+9 
           3230      4.72824e+9 
           3250       4.6267e+9 
           3270      4.50192e+9 
           3290      4.42263e+9 
           3310      4.32604e+9 
           3330      4.23379e+9 
           3350      4.13135e+9 
           3370      4.05361e+9 
           3390      3.97249e+9 
           3410      3.88843e+9 
           3430      3.80673e+9 
           3450      3.71683e+9 
           3470      3.65033e+9 
           3490      3.57952e+9 
           3510      3.50736e+9 
           3530      3.43385e+9 
           3550      3.36241e+9 
           3570      3.30089e+9 
           3590      3.22679e+9 
           3610      3.16311e+9 
           3630      3.09689e+9 
           3640      3.02617e+9 
           3650      2.78394e+9 
           3670      2.73399e+9 
           3690      2.68526e+9 
           3710      2.63627e+9 
           3730      2.61788e+9 
           3750      2.60589e+9 
           3770      2.58245e+9 
           3790      2.60701e+9 
           3810      2.63782e+9 
           3830      2.46015e+9 
           3850      2.59549e+9 
           3870      2.58408e+9 
           3890      2.29622e+9 
           3910      2.51226e+9 
           3930      2.46334e+9 
           3950      2.41817e+9 
           3970      2.11956e+9 
           3990      2.33103e+9 
           4010      2.30219e+9 
           4030      2.20913e+9 
           4050      2.23277e+9 
           4070      2.18136e+9 
           4090      2.06092e+9 
           4110      1.91083e+9 
           4130      2.06069e+9 
           4150      2.03142e+9 
           4170      2.00468e+9 
           4190      1.95857e+9 
           4210      1.90694e+9 
           4230      1.90369e+9 
           4250      1.86883e+9 
           4270      1.83544e+9 
           4290      1.80406e+9 
           4310      1.76502e+9 
           4330      1.65831e+9 
           4350      1.56864e+9 
           4370      1.67564e+9 
           4390      1.63818e+9 
           4410      1.62442e+9 
           4430      1.59965e+9 
           4450      1.57328e+9 
           4470      1.52073e+9 
           4490      1.52132e+9 
           4510      1.49321e+9 
           4530      1.46726e+9 
           4550       1.4195e+9 
           4570       1.4244e+9 
           4590      1.40029e+9 
           4610      1.37825e+9 
           4630      1.35133e+9 
           4650      1.31231e+9 
           4670      1.30967e+9 
           4690      1.24958e+9 
           4710      1.26536e+9 
           4730      1.25368e+9 
           4750      1.23384e+9 
           4770      1.21457e+9 
           4790      1.19565e+9 
           4810      1.17677e+9 
           4830      1.15421e+9 
           4850       1.0973e+9 
           4870      1.02307e+9 
           4890      1.09949e+9 
           4910      1.08782e+9 
           4930      1.06154e+9 
           4950      1.05577e+9 
           4970      1.04058e+9 
           4990      1.02502e+9 
           5010      1.00412e+9 
           5030      9.94013e+8 
           5050      9.78028e+8 
           5070      9.65242e+8 
           5090      9.51026e+8 
           5110      9.37091e+8 
           5130      9.23298e+8 
           5150      9.09807e+8 
           5170      8.96535e+8 
           5190      8.83599e+8 
           5210      8.70873e+8 
           5230      8.58399e+8 
           5250      8.45598e+8 
           5270      8.33372e+8 
           5290       8.2213e+8 
           5310      8.10483e+8 
           5330      7.98989e+8 
           5350      7.87789e+8 
           5370      7.76729e+8 
           5390      7.65817e+8 
           5410      7.40227e+8 
           5430       7.4443e+8 
           5450      7.34423e+8 
           5470      7.24254e+8 
           5490      7.14336e+8 
           5510       7.0432e+8 
           5530      6.94946e+8 
           5550      6.85496e+8 
           5570      6.76125e+8 
           5590       6.6604e+8 
           5610      6.58089e+8 
           5630      6.49264e+8 
           5650       6.4057e+8 
           5670      6.32001e+8 
           5690      6.16292e+8 
           5710      5.83441e+8 
           5730      5.76015e+8 
           5750      5.68643e+8 
           5770      5.61526e+8 
           5790      5.54508e+8 
           5810      5.46869e+8 
           5830       5.4114e+8 
           5850      5.35705e+8 
           5870      5.23893e+8 
           5890      5.25197e+8 
           5910      5.20946e+8 
           5930       5.1671e+8 
           5950      5.12753e+8 
           5970       5.0906e+8 
           5990      5.05666e+8 
           6010       5.0167e+8 
           6030      4.97248e+8 
           6050      4.93186e+8 
           6070      4.87271e+8 
           6090      4.81964e+8 
           6110      4.75918e+8 
           6130       4.7029e+8 
           6150      4.64498e+8 
           6170      4.58275e+8 
           6190      4.53313e+8 
           6210       4.4777e+8 
           6230      4.41549e+8 
           6250      4.36753e+8 
           6270      4.31623e+8 
           6290      4.26407e+8 
           6310       4.1997e+8 
           6330      4.16136e+8 
           6350       4.1121e+8 
           6370      4.06312e+8 
           6390      4.01317e+8 
           6410      3.94947e+8 
           6430      3.91994e+8 
           6450      3.87293e+8 
           6470      3.82697e+8 
           6490      3.78278e+8 
           6510      3.73389e+8 
           6530      3.66208e+8 
           6550      3.57056e+8 
           6570      3.30344e+8 
           6590      3.54807e+8 
           6610      3.52562e+8 
           6630      3.48647e+8 
           6650      3.44668e+8 
           6670      3.38235e+8 
           6690      3.32428e+8 
           6710      3.32719e+8 
           6730      3.29103e+8 
           6750       3.2538e+8 
           6770      3.21839e+8 
           6790      3.18248e+8 
           6810      3.14683e+8 
           6830      3.11164e+8 
           6850      3.07686e+8 
           6870      3.04214e+8 
           6890      2.97855e+8 
           6910      2.97333e+8 
           6930      2.94293e+8 
           6950      2.91058e+8 
           6970       2.8787e+8 
           6990      2.84714e+8 
           7010      2.81558e+8 
           7030      2.78342e+8 
           7050      2.75447e+8 
           7070      2.70484e+8 
           7090      2.69604e+8 
           7110      2.66689e+8 
           7130      2.63838e+8 
           7150      2.61016e+8 
           7170      2.56272e+8 
           7190      2.54243e+8 
           7210      2.52769e+8 
           7230      2.50047e+8 
           7250      2.47443e+8 
           7270      2.44844e+8 
           7290      2.41453e+8 
           7310      2.39697e+8 
           7330      2.37226e+8 
           7350      2.34752e+8 
           7370        2.323e+8 
           7390      2.29906e+8 
           7410      2.27507e+8 
           7430      2.25179e+8 
           7450      2.22817e+8 
           7470      2.20573e+8 
           7490      2.18127e+8 
           7510      2.16065e+8 
           7530      2.13889e+8 
           7550      2.11713e+8 
           7570      2.09551e+8 
           7590      2.04629e+8 
           7610      2.05096e+8 
           7630      2.03278e+8 
           7650      2.01238e+8 
           7670      1.99242e+8 
           7690      1.97144e+8 
           7710      1.95241e+8 
           7730      1.93205e+8 
           7750      1.91431e+8 
           7770      1.89542e+8 
           7790      1.87669e+8 
           7810      1.85808e+8 
           7830         1.84e+8 
           7850      1.82201e+8 
           7870      1.80425e+8 
           7890      1.78676e+8 
           7910      1.76967e+8 
           7930      1.75254e+8 
           7950      1.73563e+8 
           7970      1.71845e+8 
           7990      1.70231e+8 
           8010      1.68601e+8 
           8030      1.66944e+8 
           8050      1.65389e+8 
           8070      1.63812e+8 
           8090      1.62249e+8 
           8110        1.607e+8 
           8130      1.59192e+8 
