# Kurucz ODFNEW /NOVER models
# teff = 47000 K (value for the effective temperature for the model. Temperatures are given in K)
# logg = 4.50 log(cm/s2) (value for Log(G) for the model.)
# meta = -0.5  (value for the Metallicity for the model.)
# lh = 1.25  (l/Hp where l is the  mixing length of the convective element and Hp is the pressure scale height)
# vtur = 2.0 km/s (Microturbulence velocity)
#
# column 1: WAVELENGTH (ANGSTROM), Wavelength in Angstrom
# column 2: FLUX (ERG/CM2/S/A), Flux in erg/cm2/s/A
              0               0 
           90.9     0.000849636 
           93.5      0.00224545 
           96.1      0.00553723 
           97.7      0.00963959 
           99.6       0.0178921 
            102       0.0378107 
          103.8        0.064822 
          105.6        0.109083 
          107.7        0.195808 
          110.4        0.401824 
            114        0.993048 
          117.8         2.42449 
          121.3         5.27521 
          124.8         10.9284 
          127.1         17.2843 
          128.4         22.5498 
          130.5         33.3921 
          132.4         47.2218 
          133.9         61.7273 
          136.6         97.7141 
          139.8          166.56 
          143.3         286.984 
          147.2         496.076 
            151         873.925 
          155.2         1532.88 
          158.8         2432.71 
            162         3822.71 
            166         6150.63 
          170.3         9684.38 
          173.4         13357.7 
          176.8         19134.1 
          180.2         26928.7 
          181.7         30073.4 
          186.1         46628.5 
            191         71088.3 
          193.9         93230.7 
          198.4          134077 
          201.8          171384 
            205          223134 
          210.5          332671 
          216.2          490368 
          219.8          628968 
            223          762414 
          226.8          952624 
            230      1.17128e+8 
            234      1.03677e+9 
            240      3.58057e+9 
          246.5     1.21986e+10 
          252.4     3.35968e+10 
          256.8     4.76388e+10 
            260     5.50311e+10 
            264     1.17339e+11 
          268.5     1.30799e+11 
          273.5     1.48008e+11 
          278.5     1.17829e+11 
            284     1.82625e+11 
            290     2.30146e+11 
            296     1.92209e+11 
            301     1.03629e+11 
            308      1.2639e+11 
            318     6.81866e+10 
            328     7.84317e+10 
            338     5.54259e+10 
            348     5.58792e+10 
            357     1.15349e+11 
            366     1.84681e+11 
            375     2.14923e+11 
            385     1.78739e+11 
            395     2.56594e+11 
            405     3.28486e+11 
            414     3.27547e+11 
            422      3.0306e+11 
            430     2.85777e+11 
            441     3.35603e+11 
            451     3.37926e+11 
            460     3.03237e+11 
            470     3.14329e+11 
            480     3.36049e+11 
            490     2.94684e+11 
            500      3.4754e+11 
            506     3.00092e+11 
            512     3.44492e+11 
            520      3.2734e+11 
            530     3.06265e+11 
            540     2.61786e+11 
            550     2.25901e+11 
            560     2.78824e+11 
            570     2.95981e+11 
            580     2.90667e+11 
            590     2.87466e+11 
            600     2.61692e+11 
            610     2.27172e+11 
            620      2.6527e+11 
            630     2.41462e+11 
            640     2.61237e+11 
            650     2.45842e+11 
            658     2.26701e+11 
            665     2.45764e+11 
            675     2.42918e+11 
            685     2.22261e+11 
            695     2.32999e+11 
            705      2.1211e+11 
            716     2.22016e+11 
            726     2.21446e+11 
            735     2.16404e+11 
            745     2.07274e+11 
            755     2.00498e+11 
            765     1.83967e+11 
            775     1.92096e+11 
            785     1.77133e+11 
            795     1.82838e+11 
            805     1.82184e+11 
            815     1.78796e+11 
            825     1.75921e+11 
            835     1.62088e+11 
            845     1.67444e+11 
            855     1.59664e+11 
            865     1.61462e+11 
            875     1.58978e+11 
            885     1.53809e+11 
            895     1.50706e+11 
            905     1.45559e+11 
            915     1.10815e+11 
            925     1.69858e+11 
            935     2.05929e+11 
            945     2.24218e+11 
            955     2.43972e+11 
            965     2.51272e+11 
            975     2.07046e+11 
            985      2.2997e+11 
            995     2.09065e+11 
           1005     2.12896e+11 
           1015     2.11215e+11 
           1025     1.91878e+11 
           1035     2.11582e+11 
           1045     2.10502e+11 
           1055     2.05464e+11 
           1065     1.95499e+11 
           1075     1.95872e+11 
           1085     1.83852e+11 
           1095     1.86266e+11 
           1105      1.8141e+11 
           1115     1.77219e+11 
           1125     1.71136e+11 
           1135     1.71257e+11 
           1145     1.68275e+11 
           1155     1.62081e+11 
           1165     1.54967e+11 
           1175      1.4431e+11 
           1185     1.48935e+11 
           1195     1.43039e+11 
           1205     1.40643e+11 
           1215     1.21342e+11 
           1225     1.34012e+11 
           1235      1.2764e+11 
           1245     1.23932e+11 
           1255     1.25175e+11 
           1265     1.22999e+11 
           1275     1.20551e+11 
           1285     1.18085e+11 
           1295       1.164e+11 
           1305     1.12073e+11 
           1315     1.09893e+11 
           1325     1.07161e+11 
           1335     1.05279e+11 
           1345     1.03117e+11 
           1355     9.90628e+10 
           1365     9.48546e+10 
           1375     9.12961e+10 
           1385     9.16028e+10 
           1395     8.90629e+10 
           1405     8.51545e+10 
           1415     8.84858e+10 
           1425     8.49255e+10 
           1435     8.50559e+10 
           1442     8.16868e+10 
           1447     8.13067e+10 
           1455     7.94345e+10 
           1465     7.82467e+10 
           1475     7.73399e+10 
           1485     7.68998e+10 
           1495     7.48666e+10 
           1505     7.35058e+10 
           1512     7.29155e+10 
           1517     7.11524e+10 
           1525     7.09471e+10 
           1535     6.78802e+10 
           1545      6.1965e+10 
           1555       6.156e+10 
           1565     6.36891e+10 
           1575     6.35161e+10 
           1585     6.18535e+10 
           1595     6.10773e+10 
           1605     5.90156e+10 
           1615      5.7806e+10 
           1625     5.69114e+10 
           1635     5.59665e+10 
           1645     5.30774e+10 
           1655     5.46645e+10 
           1665     5.38808e+10 
           1672     5.20898e+10 
           1677     5.31727e+10 
           1685     5.24262e+10 
           1695     5.16719e+10 
           1705      5.0286e+10 
           1715     4.83424e+10 
           1725     4.78885e+10 
           1735     4.80789e+10 
           1745      4.7083e+10 
           1755     4.61246e+10 
           1765     4.53967e+10 
           1775     4.45827e+10 
           1785      4.3943e+10 
           1795      4.2933e+10 
           1805     4.22126e+10 
           1815      4.1395e+10 
           1825     4.07199e+10 
           1835     4.00457e+10 
           1845     3.94146e+10 
           1855     3.86612e+10 
           1865     3.80455e+10 
           1875     3.73257e+10 
           1885     3.66484e+10 
           1895      3.6244e+10 
           1905     3.56288e+10 
           1915     3.50152e+10 
           1925     3.40007e+10 
           1935     3.38574e+10 
           1945      3.3303e+10 
           1955     3.26459e+10 
           1967     3.20529e+10 
           1976      3.1504e+10 
           1984     3.11913e+10 
           1995     3.05773e+10 
           2005      3.0124e+10 
           2015     2.96264e+10 
           2025     2.91462e+10 
           2035     2.86303e+10 
           2045     2.80375e+10 
           2055     2.17285e+10 
           2065     2.09399e+10 
           2074     2.13261e+10 
           2078      2.1806e+10 
           2085     2.32309e+10 
           2095     2.52929e+10 
           2105     2.54324e+10 
           2115     2.51857e+10 
           2125     2.47498e+10 
           2135     2.43879e+10 
           2145     2.40055e+10 
           2155     2.39795e+10 
           2165     2.29098e+10 
           2175     2.33614e+10 
           2185      2.2396e+10 
           2195     2.26772e+10 
           2205     2.23379e+10 
           2215     2.13558e+10 
           2225     2.16703e+10 
           2235     2.13486e+10 
           2245     2.10168e+10 
           2255     2.01455e+10 
           2265     2.03859e+10 
           2275     2.01124e+10 
           2285     1.97528e+10 
           2295       1.933e+10 
           2305     1.86918e+10 
           2315     1.88659e+10 
           2325     1.86517e+10 
           2335      1.8379e+10 
           2345     1.80822e+10 
           2355     1.78032e+10 
           2365     1.75425e+10 
           2375     1.72649e+10 
           2385     1.65104e+10 
           2395     1.67045e+10 
           2405     1.64526e+10 
           2415     1.62449e+10 
           2425     1.60907e+10 
           2435     1.58387e+10 
           2445     1.56231e+10 
           2455     1.53379e+10 
           2465     1.51734e+10 
           2475     1.49982e+10 
           2485      1.4746e+10 
           2495     1.40918e+10 
           2505     1.43295e+10 
           2513     1.33931e+10 
           2518     1.39567e+10 
           2525     1.38653e+10 
           2535     1.37878e+10 
           2545     1.36133e+10 
           2555     1.34233e+10 
           2565      1.3249e+10 
           2575     1.30599e+10 
           2585     1.28812e+10 
           2595     1.26082e+10 
           2605     1.25493e+10 
           2615     1.23268e+10 
           2625     1.22189e+10 
           2635     1.20585e+10 
           2645     1.18856e+10 
           2655     1.17401e+10 
           2665     1.15832e+10 
           2675     1.13825e+10 
           2685     1.12739e+10 
           2695      1.1112e+10 
           2705     1.09981e+10 
           2715     1.08513e+10 
           2725     1.07104e+10 
           2735     1.02998e+10 
           2745     1.04419e+10 
           2755     1.03007e+10 
           2765     1.01732e+10 
           2775     1.00383e+10 
           2785      9.89447e+9 
           2795      9.77123e+9 
           2805      9.66339e+9 
           2815      9.54206e+9 
           2825      9.41091e+9 
           2835       9.3076e+9 
           2845      9.19574e+9 
           2855      9.07966e+9 
           2865      8.95261e+9 
           2875      8.83665e+9 
           2885      8.74381e+9 
           2895      8.63453e+9 
           2910      8.48122e+9 
           2930      8.28159e+9 
           2950      8.08094e+9 
           2970       7.8819e+9 
           2990      7.68074e+9 
           3010      7.50665e+9 
           3030      7.31188e+9 
           3050      7.15149e+9 
           3070      6.97188e+9 
           3090      6.83734e+9 
           3110      6.68037e+9 
           3130      6.52372e+9 
           3150      6.38609e+9 
           3170       6.2379e+9 
           3190      6.10219e+9 
           3210      5.87794e+9 
           3230      5.83789e+9 
           3250      5.70991e+9 
           3270      5.55887e+9 
           3290      5.45844e+9 
           3310      5.33903e+9 
           3330      5.22412e+9 
           3350      5.09884e+9 
           3370      5.00132e+9 
           3390      4.89003e+9 
           3410      4.78262e+9 
           3430      4.69499e+9 
           3450      4.58787e+9 
           3470      4.49854e+9 
           3490      4.40599e+9 
           3510      4.32013e+9 
           3530      4.22839e+9 
           3550      4.14322e+9 
           3570      4.05907e+9 
           3590      3.97744e+9 
           3610      3.89736e+9 
           3630      3.81681e+9 
           3640      3.70741e+9 
           3650      3.36985e+9 
           3670      3.30749e+9 
           3690      3.25596e+9 
           3710      3.22562e+9 
           3730      3.21818e+9 
           3750      3.23272e+9 
           3770      3.23401e+9 
           3790      3.23881e+9 
           3810      3.23578e+9 
           3830      3.08828e+9 
           3850      3.15007e+9 
           3870      3.11985e+9 
           3890      2.89417e+9 
           3910      3.01348e+9 
           3930       2.9363e+9 
           3950      2.90495e+9 
           3970      2.67712e+9 
           3990      2.79896e+9 
           4010      2.75541e+9 
           4030      2.66504e+9 
           4050      2.65692e+9 
           4070      2.60904e+9 
           4090      2.51782e+9 
           4110      2.38053e+9 
           4130      2.46907e+9 
           4150      2.42739e+9 
           4170      2.38553e+9 
           4190      2.33534e+9 
           4210       2.2724e+9 
           4230      2.26275e+9 
           4250      2.22336e+9 
           4270      2.18481e+9 
           4290      2.14729e+9 
           4310      2.10835e+9 
           4330      2.02703e+9 
           4350      1.94277e+9 
           4370      2.00074e+9 
           4390      1.96594e+9 
           4410      1.93327e+9 
           4430      1.90328e+9 
           4450      1.87069e+9 
           4470      1.83556e+9 
           4490      1.81046e+9 
           4510      1.77929e+9 
           4530       1.7484e+9 
           4550      1.69588e+9 
           4570      1.69449e+9 
           4590      1.66699e+9 
           4610      1.64054e+9 
           4630      1.61104e+9 
           4650      1.57693e+9 
           4670      1.56076e+9 
           4690      1.49033e+9 
           4710      1.51318e+9 
           4730      1.49038e+9 
           4750      1.46697e+9 
           4770      1.44389e+9 
           4790      1.42066e+9 
           4810      1.39923e+9 
           4830      1.37716e+9 
           4850      1.33541e+9 
           4870      1.26469e+9 
           4890      1.31368e+9 
           4910      1.29481e+9 
           4930       1.2739e+9 
           4950      1.25611e+9 
           4970      1.23708e+9 
           4990      1.21868e+9 
           5010      1.19929e+9 
           5030      1.18241e+9 
           5050      1.16457e+9 
           5070      1.14755e+9 
           5090       1.1308e+9 
           5110      1.11417e+9 
           5130      1.09774e+9 
           5150      1.08178e+9 
           5170      1.06621e+9 
           5190      1.05073e+9 
           5210      1.03542e+9 
           5230      1.02073e+9 
           5250      1.00578e+9 
           5270      9.91294e+8 
           5290      9.77644e+8 
           5310      9.63788e+8 
           5330      9.50111e+8 
           5350      9.36821e+8 
           5370      9.23637e+8 
           5390      9.10713e+8 
           5410      8.82985e+8 
           5430      8.85617e+8 
           5450      8.73394e+8 
           5470      8.61253e+8 
           5490      8.49516e+8 
           5510      8.37665e+8 
           5530       8.2648e+8 
           5550       8.1525e+8 
           5570      8.03941e+8 
           5590       7.9228e+8 
           5610      7.82665e+8 
           5630      7.72157e+8 
           5650      7.61827e+8 
           5670      7.51682e+8 
           5690      7.32165e+8 
           5710      6.84801e+8 
           5730      6.76047e+8 
           5750       6.6741e+8 
           5770      6.59181e+8 
           5790      6.51398e+8 
           5810      6.42057e+8 
           5830      6.38102e+8 
           5850      6.32688e+8 
           5870      6.25607e+8 
           5890      6.22909e+8 
           5910      6.18742e+8 
           5930       6.1509e+8 
           5950      6.12101e+8 
           5970      6.08959e+8 
           5990      6.06306e+8 
           6010       6.0022e+8 
           6030      5.93988e+8 
           6050       5.8801e+8 
           6070      5.79999e+8 
           6090       5.7377e+8 
           6110      5.65921e+8 
           6130      5.58957e+8 
           6150      5.53036e+8 
           6170      5.44132e+8 
           6190      5.39372e+8 
           6210      5.32965e+8 
           6230      5.24073e+8 
           6250      5.19549e+8 
           6270      5.13727e+8 
           6290      5.07534e+8 
           6310      4.98144e+8 
           6330      4.95188e+8 
           6350      4.89456e+8 
           6370      4.83613e+8 
           6390       4.7759e+8 
           6410      4.68243e+8 
           6430      4.66573e+8 
           6450      4.61042e+8 
           6470      4.55595e+8 
           6490      4.50294e+8 
           6510      4.44814e+8 
           6530       4.3499e+8 
           6550      4.30598e+8 
           6570      4.04546e+8 
           6590      4.24242e+8 
           6610      4.19808e+8 
           6630      4.14982e+8 
           6650      4.10224e+8 
           6670      4.04456e+8 
           6690      3.95702e+8 
           6710      3.96176e+8 
           6730       3.9182e+8 
           6750      3.87377e+8 
           6770      3.83045e+8 
           6790      3.78749e+8 
           6810      3.74495e+8 
           6830       3.7031e+8 
           6850      3.66176e+8 
           6870      3.62101e+8 
           6890      3.53206e+8 
           6910      3.53983e+8 
           6930      3.50224e+8 
           6950       3.4638e+8 
           6970      3.42579e+8 
           6990      3.38825e+8 
           7010      3.35102e+8 
           7030      3.31382e+8 
           7050      3.27838e+8 
           7070      3.23869e+8 
           7090      3.20844e+8 
           7110      3.17327e+8 
           7130      3.13913e+8 
           7150      3.10618e+8 
           7170      3.04313e+8 
           7190      3.02428e+8 
           7210      3.00803e+8 
           7230       2.9762e+8 
           7250      2.94475e+8 
           7270      2.91374e+8 
           7290      2.88211e+8 
           7310       2.8524e+8 
           7330      2.82305e+8 
           7350      2.79362e+8 
           7370       2.7644e+8 
           7390      2.73538e+8 
           7410      2.70732e+8 
           7430      2.67966e+8 
           7450      2.65138e+8 
           7470      2.62478e+8 
           7490      2.59715e+8 
           7510      2.57111e+8 
           7530      2.54518e+8 
           7550      2.51929e+8 
           7570       2.4937e+8 
           7590      2.43107e+8 
           7610      2.44153e+8 
           7630      2.41905e+8 
           7650      2.39463e+8 
           7670      2.37063e+8 
           7690      2.34641e+8 
           7710      2.32322e+8 
           7730      2.29968e+8 
           7750      2.27779e+8 
           7770      2.25528e+8 
           7790      2.23304e+8 
           7810      2.21105e+8 
           7830      2.18933e+8 
           7850      2.16736e+8 
           7870      2.14651e+8 
           7890      2.12572e+8 
           7910      2.10517e+8 
           7930      2.08474e+8 
           7950      2.06454e+8 
           7970      2.04417e+8 
           7990      2.02492e+8 
           8010      2.00549e+8 
           8030      1.98604e+8 
           8050      1.96729e+8 
           8070      1.94853e+8 
           8090      1.92999e+8 
           8110      1.91166e+8 
           8130      1.89354e+8 
