# Kurucz ODFNEW /NOVER models
# teff = 42000 K (value for the effective temperature for the model. Temperatures are given in K)
# logg = 4.50 log(cm/s2) (value for Log(G) for the model.)
# meta = -0.5  (value for the Metallicity for the model.)
# lh = 1.25  (l/Hp where l is the  mixing length of the convective element and Hp is the pressure scale height)
# vtur = 2.0 km/s (Microturbulence velocity)
#
# column 1: WAVELENGTH (ANGSTROM), Wavelength in Angstrom
# column 2: FLUX (ERG/CM2/S/A), Flux in erg/cm2/s/A
              0               0 
           90.9      1.61538e-7 
           93.5      4.99145e-7 
           96.1      1.44427e-6 
           97.7      2.73073e-6 
           99.6      5.63073e-6 
            102      1.35448e-5 
          103.8       2.5547e-5 
          105.6      4.72191e-5 
          107.7      9.43897e-5 
          110.4     0.000221912 
            114     0.000655047 
          117.8      0.00192817 
          121.3      0.00494439 
          124.8       0.0120957 
          127.1       0.0212698 
          128.4       0.0290136 
          130.5       0.0473285 
          132.4       0.0728391 
          133.9        0.101652 
          136.6        0.181871 
          139.8        0.354852 
          143.3        0.712004 
          147.2         1.47891 
            151         2.97984 
          155.2         6.15417 
          158.8         11.1459 
            162         18.5667 
            166         34.2648 
          170.3         63.7967 
          173.4         98.1482 
          176.8         155.775 
          180.2         242.313 
          181.7         290.328 
          186.1         503.073 
            191         893.193 
          193.9          1241.1 
          198.4         2021.73 
          201.8         2876.69 
            205         3989.16 
          210.5          6814.1 
          216.2           11506 
          219.8         15874.9 
            223         20857.3 
          226.8         28490.1 
            230      1.16209e+7 
            234      5.19315e+7 
            240      1.01285e+8 
          246.5      2.76926e+8 
          252.4      9.76868e+8 
          256.8      1.42017e+9 
            260      2.52794e+9 
            264     1.13896e+10 
          268.5     1.54884e+10 
          273.5     1.84184e+10 
          278.5     1.26285e+10 
            284     2.60403e+10 
            290     3.46533e+10 
            296     2.43334e+10 
            301      9.31752e+9 
            308      2.4195e+10 
            318     1.68453e+10 
            328     2.29703e+10 
            338     1.74235e+10 
            348     1.83204e+10 
            357     4.10401e+10 
            366     6.75666e+10 
            375     8.03129e+10 
            385     7.16303e+10 
            395      1.0172e+11 
            405     1.29479e+11 
            414     1.27731e+11 
            422     1.21561e+11 
            430     1.12601e+11 
            441      1.2941e+11 
            451     1.32603e+11 
            460     1.17654e+11 
            470     1.19722e+11 
            480     1.29668e+11 
            490     1.07712e+11 
            500     1.31452e+11 
            506     1.12662e+11 
            512     1.64147e+11 
            520     1.52601e+11 
            530     1.40432e+11 
            540     1.22791e+11 
            550     1.11298e+11 
            560     1.41058e+11 
            570     1.49138e+11 
            580     1.43178e+11 
            590     1.43712e+11 
            600     1.27042e+11 
            610     1.19944e+11 
            620     1.41431e+11 
            630     1.32876e+11 
            640     1.40225e+11 
            650     1.32698e+11 
            658     1.21068e+11 
            665     1.32411e+11 
            675     1.34941e+11 
            685       1.217e+11 
            695     1.29345e+11 
            705     1.15788e+11 
            716     1.27234e+11 
            726     1.26626e+11 
            735     1.25294e+11 
            745     1.19618e+11 
            755     1.16788e+11 
            765     1.09358e+11 
            775     1.12933e+11 
            785     1.05953e+11 
            795     1.09301e+11 
            805     1.07986e+11 
            815      1.0702e+11 
            825     1.06068e+11 
            835     9.58973e+10 
            845     1.01671e+11 
            855     9.81371e+10 
            865     9.92799e+10 
            875     9.80028e+10 
            885     9.56515e+10 
            895     9.41513e+10 
            905     9.12865e+10 
            915     7.17214e+10 
            925     1.19779e+11 
            935     1.55234e+11 
            945     1.77244e+11 
            955     1.92305e+11 
            965     2.06144e+11 
            975     1.58356e+11 
            985     1.87273e+11 
            995     1.70285e+11 
           1005     1.72583e+11 
           1015     1.73851e+11 
           1025     1.50749e+11 
           1035     1.72197e+11 
           1045     1.73185e+11 
           1055     1.68828e+11 
           1065     1.60122e+11 
           1075     1.59318e+11 
           1085     1.49121e+11 
           1095     1.52417e+11 
           1105     1.47496e+11 
           1115     1.44013e+11 
           1125     1.37485e+11 
           1135     1.39059e+11 
           1145     1.36554e+11 
           1155     1.30277e+11 
           1165     1.25241e+11 
           1175     1.11937e+11 
           1185     1.18173e+11 
           1195     1.14513e+11 
           1205     1.12065e+11 
           1215     9.40101e+10 
           1225     1.06317e+11 
           1235     1.04464e+11 
           1245      1.0172e+11 
           1255      1.0161e+11 
           1265     1.00507e+11 
           1275     9.90895e+10 
           1285     9.73708e+10 
           1295     9.53313e+10 
           1305     9.22941e+10 
           1315     9.11681e+10 
           1325     8.89667e+10 
           1335     8.73706e+10 
           1345      8.5895e+10 
           1355     8.25757e+10 
           1365     7.96114e+10 
           1375     7.70886e+10 
           1385     7.64627e+10 
           1395     7.37325e+10 
           1405     7.06485e+10 
           1415     7.32642e+10 
           1425      6.9232e+10 
           1435     7.00288e+10 
           1442      6.7852e+10 
           1447     6.74236e+10 
           1455     6.56291e+10 
           1465     6.49222e+10 
           1475     6.38612e+10 
           1485     6.36295e+10 
           1495     6.18724e+10 
           1505     6.12191e+10 
           1512     6.07311e+10 
           1517     5.94099e+10 
           1525     5.87072e+10 
           1535     5.53801e+10 
           1545     4.94715e+10 
           1555     4.95494e+10 
           1565     5.16147e+10 
           1575     5.19058e+10 
           1585     5.09545e+10 
           1595     5.02629e+10 
           1605     4.80927e+10 
           1615      4.6833e+10 
           1625     4.63569e+10 
           1635     4.55786e+10 
           1645      4.3517e+10 
           1655     4.50573e+10 
           1665     4.42811e+10 
           1672     4.24248e+10 
           1677     4.42458e+10 
           1685     4.34114e+10 
           1695     4.27354e+10 
           1705     4.16109e+10 
           1715     4.00577e+10 
           1725     3.95642e+10 
           1735     3.99105e+10 
           1745     3.91598e+10 
           1755     3.82415e+10 
           1765     3.77394e+10 
           1775     3.70771e+10 
           1785     3.66583e+10 
           1795     3.57329e+10 
           1805     3.52004e+10 
           1815     3.45805e+10 
           1825     3.39275e+10 
           1835     3.35141e+10 
           1845     3.29448e+10 
           1855     3.23617e+10 
           1865     3.18293e+10 
           1875     3.11649e+10 
           1885     3.06211e+10 
           1895     3.04163e+10 
           1905     2.99431e+10 
           1915     2.94277e+10 
           1925     2.84203e+10 
           1935     2.85006e+10 
           1945      2.8047e+10 
           1955     2.73714e+10 
           1967     2.69947e+10 
           1976     2.65863e+10 
           1984     2.62976e+10 
           1995     2.57983e+10 
           2005      2.5432e+10 
           2015      2.5015e+10 
           2025     2.46087e+10 
           2035     2.41882e+10 
           2045     2.37135e+10 
           2055     1.79577e+10 
           2065     1.72462e+10 
           2074     1.76127e+10 
           2078      1.8037e+10 
           2085     1.93425e+10 
           2095     2.12999e+10 
           2105     2.15443e+10 
           2115     2.13714e+10 
           2125     2.09755e+10 
           2135     2.06968e+10 
           2145     2.03995e+10 
           2155      2.0415e+10 
           2165     1.94151e+10 
           2175      1.9925e+10 
           2185     1.90187e+10 
           2195     1.93572e+10 
           2205     1.90743e+10 
           2215     1.81584e+10 
           2225     1.84978e+10 
           2235     1.82353e+10 
           2245      1.7935e+10 
           2255     1.71428e+10 
           2265     1.74192e+10 
           2275      1.7187e+10 
           2285     1.68688e+10 
           2295     1.64167e+10 
           2305     1.59236e+10 
           2315     1.61202e+10 
           2325     1.59463e+10 
           2335     1.57195e+10 
           2345     1.54644e+10 
           2355     1.52274e+10 
           2365      1.5004e+10 
           2375     1.47543e+10 
           2385     1.40527e+10 
           2395     1.42606e+10 
           2405     1.41019e+10 
           2415     1.39163e+10 
           2425     1.37838e+10 
           2435     1.35685e+10 
           2445     1.33853e+10 
           2455     1.31552e+10 
           2465     1.30096e+10 
           2475     1.28549e+10 
           2485     1.26418e+10 
           2495     1.17745e+10 
           2505     1.22618e+10 
           2513     1.14173e+10 
           2518     1.19276e+10 
           2525     1.19112e+10 
           2535      1.1825e+10 
           2545     1.16735e+10 
           2555     1.15073e+10 
           2565     1.13599e+10 
           2575     1.12026e+10 
           2585     1.10551e+10 
           2595     1.08275e+10 
           2605     1.07661e+10 
           2615     1.05865e+10 
           2625     1.04868e+10 
           2635     1.03542e+10 
           2645     1.02044e+10 
           2655     1.00818e+10 
           2665      9.94415e+9 
           2675      9.76676e+9 
           2685      9.68003e+9 
           2695      9.54764e+9 
           2705      9.45144e+9 
           2715      9.32061e+9 
           2725      9.20057e+9 
           2735      8.83326e+9 
           2745        8.978e+9 
           2755      8.85935e+9 
           2765      8.74414e+9 
           2775      8.63621e+9 
           2785      8.51408e+9 
           2795      8.39152e+9 
           2805      8.31169e+9 
           2815      8.21138e+9 
           2825      8.09907e+9 
           2835      8.00968e+9 
           2845      7.91857e+9 
           2855      7.81976e+9 
           2865      7.71708e+9 
           2875      7.62336e+9 
           2885      7.53486e+9 
           2895      7.44199e+9 
           2910       7.3054e+9 
           2930      7.13668e+9 
           2950      6.96232e+9 
           2970      6.79198e+9 
           2990      6.61588e+9 
           3010      6.46838e+9 
           3030      6.29792e+9 
           3050      6.16415e+9 
           3070      6.02376e+9 
           3090      5.89908e+9 
           3110      5.76501e+9 
           3130      5.63199e+9 
           3150      5.51549e+9 
           3170      5.38841e+9 
           3190      5.26885e+9 
           3210      5.07654e+9 
           3230      5.04599e+9 
           3250      4.93698e+9 
           3270       4.8028e+9 
           3290      4.71987e+9 
           3310      4.61659e+9 
           3330      4.51916e+9 
           3350      4.41031e+9 
           3370      4.32828e+9 
           3390      4.23802e+9 
           3410       4.1473e+9 
           3430       4.0677e+9 
           3450      3.97288e+9 
           3470      3.90063e+9 
           3490      3.82139e+9 
           3510      3.74588e+9 
           3530      3.66634e+9 
           3550      3.59199e+9 
           3570      3.52259e+9 
           3590      3.44953e+9 
           3610      3.37992e+9 
           3630      3.31103e+9 
           3640      3.21752e+9 
           3650      2.92109e+9 
           3670      2.86836e+9 
           3690      2.82297e+9 
           3710      2.79343e+9 
           3730       2.7882e+9 
           3750       2.8014e+9 
           3770      2.80065e+9 
           3790      2.81812e+9 
           3810      2.82753e+9 
           3830      2.67789e+9 
           3850      2.76222e+9 
           3870      2.73777e+9 
           3890      2.51127e+9 
           3910      2.65198e+9 
           3930       2.5831e+9 
           3950      2.55411e+9 
           3970      2.32216e+9 
           3990      2.46317e+9 
           4010      2.42484e+9 
           4030      2.33889e+9 
           4050      2.34341e+9 
           4070      2.29769e+9 
           4090       2.2067e+9 
           4110      2.07406e+9 
           4130      2.17379e+9 
           4150      2.13797e+9 
           4170      2.10382e+9 
           4190      2.05917e+9 
           4210       2.0022e+9 
           4230      1.99704e+9 
           4250      1.96185e+9 
           4270      1.92804e+9 
           4290      1.89506e+9 
           4310      1.85979e+9 
           4330      1.77934e+9 
           4350      1.69823e+9 
           4370      1.76577e+9 
           4390      1.73175e+9 
           4410      1.70696e+9 
           4430      1.68066e+9 
           4450       1.6525e+9 
           4470      1.61393e+9 
           4490      1.59885e+9 
           4510      1.57026e+9 
           4530      1.54339e+9 
           4550      1.49557e+9 
           4570       1.4969e+9 
           4590      1.47258e+9 
           4610      1.44941e+9 
           4630      1.42247e+9 
           4650      1.38721e+9 
           4670      1.37869e+9 
           4690      1.31425e+9 
           4710      1.33553e+9 
           4730        1.318e+9 
           4750      1.29737e+9 
           4770      1.27704e+9 
           4790      1.25707e+9 
           4810      1.23771e+9 
           4830      1.21772e+9 
           4850      1.17613e+9 
           4870      1.10786e+9 
           4890      1.16143e+9 
           4910      1.14544e+9 
           4930      1.12401e+9 
           4950      1.11143e+9 
           4970      1.09489e+9 
           4990      1.07864e+9 
           5010      1.05984e+9 
           5030      1.04647e+9 
           5050       1.0305e+9 
           5070      1.01598e+9 
           5090      1.00115e+9 
           5110      9.86548e+8 
           5130      9.72056e+8 
           5150      9.57957e+8 
           5170      9.44148e+8 
           5190      9.30523e+8 
           5210      9.17131e+8 
           5230      9.04072e+8 
           5250      8.90758e+8 
           5270      8.77879e+8 
           5290      8.66055e+8 
           5310      8.53827e+8 
           5330      8.41754e+8 
           5350      8.30023e+8 
           5370      8.18418e+8 
           5390      8.06987e+8 
           5410      7.81724e+8 
           5430      7.84779e+8 
           5450      7.74034e+8 
           5470      7.63335e+8 
           5490      7.52959e+8 
           5510      7.42403e+8 
           5530      7.32606e+8 
           5550      7.22689e+8 
           5570       7.1276e+8 
           5590      7.02147e+8 
           5610      6.93918e+8 
           5630      6.84636e+8 
           5650      6.75513e+8 
           5670       6.6655e+8 
           5690       6.4891e+8 
           5710      6.06852e+8 
           5730      5.99159e+8 
           5750      5.91568e+8 
           5770      5.84272e+8 
           5790      5.77343e+8 
           5810      5.69615e+8 
           5830      5.65379e+8 
           5850       5.6075e+8 
           5870      5.52583e+8 
           5890      5.52194e+8 
           5910      5.48548e+8 
           5930      5.45337e+8 
           5950      5.42687e+8 
           5970      5.39998e+8 
           5990      5.37648e+8 
           6010      5.32689e+8 
           6030      5.26996e+8 
           6050      5.21942e+8 
           6070      5.14909e+8 
           6090      5.09359e+8 
           6110      5.02428e+8 
           6130      4.96276e+8 
           6150      4.90961e+8 
           6170      4.83104e+8 
           6190      4.78924e+8 
           6210      4.73255e+8 
           6230      4.65476e+8 
           6250      4.61384e+8 
           6270      4.56251e+8 
           6290      4.50753e+8 
           6310      4.42536e+8 
           6330       4.3982e+8 
           6350      4.34744e+8 
           6370       4.2957e+8 
           6390      4.24281e+8 
           6410      4.16073e+8 
           6430       4.1449e+8 
           6450      4.09552e+8 
           6470       4.0472e+8 
           6490      4.00055e+8 
           6510      3.95129e+8 
           6530       3.8651e+8 
           6550      3.81669e+8 
           6570      3.56816e+8 
           6590      3.76713e+8 
           6610      3.73065e+8 
           6630      3.68796e+8 
           6650      3.64587e+8 
           6670      3.58846e+8 
           6690      3.51216e+8 
           6710      3.52055e+8 
           6730      3.48227e+8 
           6750      3.44282e+8 
           6770      3.40489e+8 
           6790      3.36697e+8 
           6810      3.32938e+8 
           6830      3.29229e+8 
           6850      3.25566e+8 
           6870      3.21935e+8 
           6890      3.14093e+8 
           6910      3.14746e+8 
           6930      3.11424e+8 
           6950      3.08013e+8 
           6970      3.04643e+8 
           6990      3.01321e+8 
           7010      2.98003e+8 
           7030      2.94663e+8 
           7050      2.91561e+8 
           7070      2.87238e+8 
           7090      2.85372e+8 
           7110      2.82294e+8 
           7130      2.79275e+8 
           7150      2.76314e+8 
           7170      2.70737e+8 
           7190      2.69044e+8 
           7210      2.67604e+8 
           7230      2.64778e+8 
           7250      2.61993e+8 
           7270      2.59242e+8 
           7290      2.56141e+8 
           7310       2.5379e+8 
           7330      2.51194e+8 
           7350      2.48587e+8 
           7370      2.45985e+8 
           7390      2.43455e+8 
           7410      2.40928e+8 
           7430      2.38472e+8 
           7450      2.35952e+8 
           7470       2.3361e+8 
           7490      2.31081e+8 
           7510      2.28837e+8 
           7530       2.2654e+8 
           7550      2.24244e+8 
           7570      2.21963e+8 
           7590      2.16413e+8 
           7610      2.17326e+8 
           7630       2.1534e+8 
           7650      2.13179e+8 
           7670      2.11064e+8 
           7690      2.08865e+8 
           7710      2.06845e+8 
           7730      2.04717e+8 
           7750      2.02809e+8 
           7770      2.00811e+8 
           7790      1.98832e+8 
           7810      1.96882e+8 
           7830       1.9495e+8 
           7850      1.93004e+8 
           7870      1.91148e+8 
           7890      1.89309e+8 
           7910      1.87492e+8 
           7930      1.85679e+8 
           7950      1.83887e+8 
           7970      1.82064e+8 
           7990      1.80369e+8 
           8010      1.78641e+8 
           8030      1.76905e+8 
           8050      1.75248e+8 
           8070      1.73583e+8 
           8090      1.71931e+8 
           8110      1.70305e+8 
           8130      1.68699e+8 
