# TLUSTY OSTAR2002+BSTAR2006
# teff = 32500 K (value for the effective temperature for the model. Temperatures are given in K)
# logg = 4.75 log(cm/s2) (value for Log(G) for the model.)
# z = 0.5  (Z/Z0)
#
# column 1: WAVELENGTH (ANGSTROM), Wavelength in Angstrom
# column 2: FLUX (ERG/CM2/S/A), Flux in erg/cm2/s/A
        44.8829     1.23578e-41 
        44.9078     1.30003e-41 
        44.9328     1.39153e-41 
        44.9578     1.48947e-41 
        44.9827      1.5943e-41 
        45.0077     1.70652e-41 
        45.0327     1.82663e-41 
        45.0578     1.95518e-41 
        45.0828     2.09281e-41 
        45.1079      2.2401e-41 
        45.1329     2.39776e-41 
         45.158     2.56652e-41 
        45.1831     2.74715e-41 
        45.2082      2.9405e-41 
        45.2333     3.14748e-41 
        45.2585     3.36901e-41 
        45.2836     3.60612e-41 
        45.3088     3.85993e-41 
        45.3339     4.13162e-41 
        45.3592     4.42239e-41 
        45.3844     4.73366e-41 
        45.4096     5.06681e-41 
        45.4348     5.42345e-41 
        45.4601     5.80516e-41 
        45.4853     6.21375e-41 
        45.5106     6.65108e-41 
        45.5359      7.1192e-41 
        45.5612     7.62026e-41 
        45.5865     8.15662e-41 
        45.6118     8.73071e-41 
        45.6372      9.3452e-41 
        45.6626     1.00029e-40 
         45.688      1.0707e-40 
        45.7133     1.14606e-40 
        45.7388     1.22672e-40 
        45.7642     1.31306e-40 
        45.7896     1.40548e-40 
         45.815      1.5044e-40 
        45.8405     1.61028e-40 
         45.866     1.72361e-40 
        45.8915     1.84494e-40 
         45.917     1.97477e-40 
        45.9425     2.11376e-40 
         45.968     2.26255e-40 
        45.9936     2.42179e-40 
        46.0191     2.59225e-40 
        46.0447     2.77468e-40 
        46.0702     2.96998e-40 
        46.0959     3.17901e-40 
        46.1215     3.40275e-40 
        46.1471     3.64225e-40 
        46.1728     3.89861e-40 
        46.1984     4.17302e-40 
        46.2241      4.4667e-40 
        46.2498     4.78109e-40 
        46.2755      5.1176e-40 
        46.3012     5.47779e-40 
        46.3269     5.86333e-40 
        46.3527     6.27601e-40 
        46.3784     6.71773e-40 
        46.4042     7.19055e-40 
          46.43     7.69662e-40 
        46.4558     8.23835e-40 
        46.4816     8.81818e-40 
        46.5074     9.43884e-40 
        46.5333     1.01032e-39 
        46.5591     1.08143e-39 
         46.585     1.15754e-39 
        46.6109     1.23901e-39 
        46.6368     1.32558e-39 
        46.6627     1.41497e-39 
        46.6886     1.51049e-39 
        46.7146     1.61245e-39 
        46.7405      1.7213e-39 
        46.7665     1.83748e-39 
        46.7925     1.96153e-39 
        46.8185     2.09394e-39 
        46.8445     2.23529e-39 
        46.8705     2.38617e-39 
        46.8966     2.54725e-39 
        46.9226      2.7192e-39 
        46.9487     2.90275e-39 
        46.9748      3.0987e-39 
        47.0009     3.30787e-39 
        47.0271     3.53116e-39 
        47.0532     3.76952e-39 
        47.0794     4.02398e-39 
        47.1055     4.29562e-39 
        47.1317     4.58557e-39 
        47.1579     4.89512e-39 
        47.1841     5.22556e-39 
        47.2103     5.57831e-39 
        47.2366     5.95485e-39 
        47.2628     6.35684e-39 
         47.289     6.78595e-39 
        47.3154       7.244e-39 
        47.3416     7.73302e-39 
        47.3679     8.25502e-39 
        47.3943     8.81224e-39 
        47.4206     9.40712e-39 
        47.4469     1.00421e-38 
        47.4733       1.072e-38 
        47.4997     1.14436e-38 
        47.5261     1.22161e-38 
        47.5525     1.30407e-38 
        47.5789      1.3921e-38 
        47.6054     1.48608e-38 
        47.6318     1.58639e-38 
        47.6583     1.69348e-38 
        47.6847     1.80779e-38 
        47.7113     1.92982e-38 
        47.7378     2.06009e-38 
        47.7643     2.19916e-38 
        47.7908     2.34761e-38 
        47.8174     2.50609e-38 
         47.844     2.67525e-38 
        47.8706     2.85583e-38 
        47.8971     3.04863e-38 
        47.9238     3.25441e-38 
        47.9505     3.47408e-38 
        47.9771     3.70861e-38 
        48.0037     3.95894e-38 
        48.0304     4.22619e-38 
        48.0571     4.51149e-38 
        48.0838     4.81601e-38 
        48.1105     5.14112e-38 
        48.1372     5.48816e-38 
         48.164     5.85862e-38 
        48.1908     6.25411e-38 
        48.2175     6.67628e-38 
        48.2444     7.12695e-38 
        48.2712     7.60804e-38 
         48.298      8.1216e-38 
        48.3248     8.66985e-38 
        48.3517      9.2551e-38 
        48.3785     9.87985e-38 
        48.4054     1.05468e-37 
        48.4323     1.12587e-37 
        48.4592     1.20187e-37 
        48.4862       1.283e-37 
        48.5131      1.3698e-37 
          48.54     1.45937e-37 
         48.567     1.55359e-37 
         48.594     1.65389e-37 
         48.621     1.76067e-37 
         48.648     1.87435e-37 
        48.6751     1.99535e-37 
        48.7022     2.12417e-37 
        48.7292     2.26131e-37 
        48.7563     2.40732e-37 
        48.7834     2.56274e-37 
        48.8105     2.72819e-37 
        48.8376     2.90432e-37 
        48.8647     3.09183e-37 
        48.8919     3.29145e-37 
         48.919     3.50396e-37 
        48.9463     3.73017e-37 
        48.9735       3.971e-37 
        49.0007     4.22738e-37 
        49.0279     4.50031e-37 
        49.0551     4.79086e-37 
        49.0824     5.10016e-37 
        49.1097     5.42944e-37 
         49.137     5.77998e-37 
        49.1643     6.15313e-37 
        49.1916     6.55039e-37 
        49.2189     6.97331e-37 
        49.2463     7.42353e-37 
        49.2737     7.90278e-37 
         49.301     8.41303e-37 
        49.3284     8.95619e-37 
        49.3559      9.5344e-37 
        49.3833       1.015e-36 
        49.4107     1.08053e-36 
        49.4382     1.15029e-36 
        49.4656     1.22455e-36 
        49.4932     1.30361e-36 
        49.5206     1.38778e-36 
        49.5481     1.47737e-36 
        49.5757     1.57276e-36 
        49.6032      1.6743e-36 
        49.6308     1.78239e-36 
        49.6584     1.89747e-36 
         49.686     2.01997e-36 
        49.7136     2.15038e-36 
        49.7412     2.28921e-36 
        49.7688     2.43702e-36 
        49.7965     2.59435e-36 
        49.8242     2.76185e-36 
        49.8519     2.94015e-36 
        49.8796     3.12998e-36 
        49.9073     3.33207e-36 
         49.935     3.54718e-36 
        49.9627      3.7762e-36 
        49.9906     4.01999e-36 
        50.0183     4.27953e-36 
        50.0462     4.55582e-36 
        50.0739     4.84996e-36 
        50.1018     5.16309e-36 
        50.1296     5.49643e-36 
        50.1574     5.85128e-36 
        50.1853     6.22906e-36 
        50.2132     6.63122e-36 
        50.2412     7.05933e-36 
         50.269      7.5151e-36 
         50.297     8.00031e-36 
        50.3249     8.51682e-36 
        50.3529     9.06669e-36 
        50.3809     9.65203e-36 
        50.4088     1.02752e-35 
        50.4369     1.09386e-35 
        50.4649     1.16448e-35 
         50.493     1.23966e-35 
         50.521      1.3197e-35 
        50.5491      1.4049e-35 
        50.5771     1.49489e-35 
        50.6053     1.58695e-35 
        50.6334      1.6847e-35 
        50.6616     1.78847e-35 
        50.6897     1.89863e-35 
        50.7179     2.01558e-35 
        50.7461     2.13972e-35 
        50.7742     2.27153e-35 
        50.8025     2.41144e-35 
        50.8307     2.55996e-35 
        50.8589     2.71765e-35 
        50.8872     2.88503e-35 
        50.9155     3.06274e-35 
        50.9438     3.25139e-35 
        50.9721     3.45166e-35 
        51.0004     3.66428e-35 
        51.0288     3.88997e-35 
        51.0571     4.12958e-35 
        51.0855     4.38394e-35 
        51.1139     4.65397e-35 
        51.1423     4.94063e-35 
        51.1707     5.24494e-35 
        51.1991     5.56801e-35 
        51.2276     5.91098e-35 
         51.256     6.27506e-35 
        51.2845     6.66158e-35 
        51.3131     7.07189e-35 
        51.3415      7.5075e-35 
          51.37     7.96993e-35 
        51.3987     8.46082e-35 
        51.4272     8.98195e-35 
        51.4557     9.53523e-35 
        51.4844     1.01225e-34 
        51.5129     1.07461e-34 
        51.5416     1.14079e-34 
        51.5703     1.21106e-34 
        51.5989     1.28566e-34 
        51.6276     1.36485e-34 
        51.6563     1.44891e-34 
         51.685     1.53817e-34 
        51.7137      1.6329e-34 
        51.7424     1.73348e-34 
        51.7712     1.84025e-34 
           51.8      1.9536e-34 
        51.8287     2.07394e-34 
        51.8575     2.20168e-34 
        51.8863      2.3373e-34 
        51.9152     2.48127e-34 
         51.944      2.6341e-34 
        51.9729     2.79635e-34 
        52.0018     2.96858e-34 
        52.0307     3.15144e-34 
        52.0596     3.34555e-34 
        52.0885     3.55162e-34 
        52.1175     3.77037e-34 
        52.1464     4.00262e-34 
        52.1754     4.24917e-34 
        52.2044      4.5109e-34 
        52.2334     4.78875e-34 
        52.2624     5.08371e-34 
        52.2915     5.39683e-34 
        52.3205     5.72925e-34 
        52.3496     6.08216e-34 
        52.3787     6.45678e-34 
        52.4078     6.85449e-34 
        52.4369     7.27669e-34 
        52.4661     7.72488e-34 
        52.4952     8.20071e-34 
        52.5244     8.70583e-34 
        52.5536     9.24208e-34 
        52.5828     9.81133e-34 
        52.6121     1.04157e-33 
        52.6413     1.10572e-33 
        52.6705     1.17383e-33 
        52.6997     1.24613e-33 
         52.729     1.32289e-33 
        52.7583     1.40437e-33 
        52.7877     1.49088e-33 
         52.817     1.58085e-33 
        52.8463      1.6733e-33 
        52.8758     1.77138e-33 
        52.9051     1.87522e-33 
        52.9345     1.98514e-33 
         52.964     2.10151e-33 
        52.9934      2.2247e-33 
        53.0228     2.35511e-33 
        53.0523     2.49316e-33 
        53.0818      2.6393e-33 
        53.1113       2.794e-33 
        53.1407      2.9578e-33 
        53.1703     3.13116e-33 
        53.1999     3.31472e-33 
        53.2294     3.50902e-33 
         53.259     3.71472e-33 
        53.2886     3.93247e-33 
        53.3182     4.16297e-33 
        53.3478     4.40702e-33 
        53.3775     4.66534e-33 
        53.4071     4.93882e-33 
        53.4368     5.22832e-33 
        53.4665     5.53482e-33 
        53.4963     5.85924e-33 
         53.526     6.20271e-33 
        53.5557      6.5663e-33 
        53.5855      6.9512e-33 
        53.6153     7.35867e-33 
         53.645     7.79003e-33 
        53.6749     8.24666e-33 
        53.7047     8.73007e-33 
        53.7345     9.24182e-33 
        53.7644     9.78355e-33 
        53.7942     1.03571e-32 
        53.8242     1.09642e-32 
         53.854     1.16069e-32 
        53.8839     1.22873e-32 
        53.9139     1.30075e-32 
        53.9439       1.377e-32 
        53.9739     1.45771e-32 
        54.0038     1.54317e-32 
        54.0339     1.63362e-32 
        54.0639     1.72938e-32 
         54.094     1.83077e-32 
         54.124     1.93807e-32 
         54.154     2.05169e-32 
        54.1842     2.17195e-32 
        54.2143     2.29927e-32 
        54.2444     2.43404e-32 
        54.2745     2.57673e-32 
        54.3047     2.72777e-32 
        54.3349     2.88767e-32 
        54.3651     3.05694e-32 
        54.3953     3.23614e-32 
        54.4255     3.42584e-32 
        54.4557     3.62665e-32 
         54.486     3.83923e-32 
        54.5163     4.06428e-32 
        54.5466     4.30253e-32 
        54.5769     4.55474e-32 
        54.6072     4.82174e-32 
        54.6376     5.10438e-32 
        54.6679     5.40359e-32 
        54.6984     5.72033e-32 
        54.7287     6.05565e-32 
        54.7591     6.41063e-32 
        54.7895     6.78641e-32 
          54.82     7.18421e-32 
        54.8505     7.60534e-32 
         54.881     8.05113e-32 
        54.9115      8.5231e-32 
         54.942     9.02271e-32 
        54.9725     9.55162e-32 
         55.003     1.01115e-31 
        55.0336     1.07042e-31 
        55.0642     1.13317e-31 
        55.0948     1.19959e-31 
        55.1254     1.26992e-31 
        55.1561     1.34436e-31 
        55.1867     1.42315e-31 
        55.2174     1.50658e-31 
         55.248     1.59385e-31 
        55.2788     1.68247e-31 
        55.3095     1.77609e-31 
        55.3402     1.87493e-31 
         55.371     1.97926e-31 
        55.4017     2.08939e-31 
        55.4325     2.20566e-31 
        55.4633      2.3284e-31 
        55.4941     2.45797e-31 
         55.525     2.59473e-31 
        55.5558     2.73913e-31 
        55.5867     2.89155e-31 
        55.6176     3.05244e-31 
        55.6485      3.2223e-31 
        55.6794     3.40162e-31 
        55.7104      3.5909e-31 
        55.7413     3.79072e-31 
        55.7723     4.00165e-31 
        55.8033     4.22433e-31 
        55.8343     4.45939e-31 
        55.8653     4.70755e-31 
        55.8964     4.96949e-31 
        55.9275     5.24602e-31 
        55.9586     5.53793e-31 
        55.9896     5.84611e-31 
        56.0208     6.17142e-31 
        56.0519     6.51483e-31 
         56.083     6.87736e-31 
        56.1142     7.26005e-31 
        56.1453     7.66405e-31 
        56.1766     8.09051e-31 
        56.2077     8.54073e-31 
        56.2391     9.01596e-31 
        56.2703     9.51767e-31 
        56.3016     1.00473e-30 
        56.3328     1.06064e-30 
        56.3642     1.11966e-30 
        56.3954     1.18196e-30 
        56.4268     1.24773e-30 
        56.4582     1.31717e-30 
        56.4896     1.39046e-30 
        56.5209     1.46784e-30 
        56.5523     1.54951e-30 
        56.5837     1.63573e-30 
        56.6152     1.72675e-30 
        56.6467     1.82284e-30 
        56.6782     1.92428e-30 
        56.7096     2.03136e-30 
        56.7412     2.14439e-30 
        56.7726     2.26373e-30 
        56.8043     2.38968e-30 
        56.8358     2.52266e-30 
        56.8674     2.66303e-30 
         56.899     2.81122e-30 
        56.9306     2.96766e-30 
        56.9623     3.13278e-30 
        56.9939     3.30711e-30 
        57.0256     3.49115e-30 
        57.0572     3.68541e-30 
         57.089     3.89049e-30 
        57.1207     4.10697e-30 
        57.1524     4.33551e-30 
        57.1841     4.57678e-30 
         57.216     4.83143e-30 
        57.2478     5.10028e-30 
        57.2795     5.38411e-30 
        57.3114     5.68371e-30 
        57.3433     5.99996e-30 
        57.3751     6.33385e-30 
         57.407     6.68631e-30 
        57.4389     7.05838e-30 
        57.4708     7.45114e-30 
        57.5028     7.86576e-30 
        57.5347     8.30347e-30 
        57.5667     8.76551e-30 
        57.5987     9.25328e-30 
        57.6307     9.76818e-30 
        57.6627     1.03117e-29 
        57.6948     1.08855e-29 
        57.7268     1.14913e-29 
        57.7589     1.21307e-29 
         57.791     1.28058e-29 
        57.8231     1.35183e-29 
        57.8552     1.42705e-29 
        57.8874     1.50646e-29 
        57.9196      1.5894e-29 
        57.9517     1.67317e-29 
        57.9839     1.76133e-29 
        58.0162     1.85411e-29 
        58.0485     1.95179e-29 
        58.0806     2.05463e-29 
        58.1129     2.16287e-29 
        58.1453     2.27681e-29 
        58.1776     2.39677e-29 
        58.2099     2.52304e-29 
        58.2422     2.65596e-29 
        58.2746     2.79588e-29 
         58.307     2.94318e-29 
        58.3393     3.09824e-29 
        58.3718     3.26146e-29 
        58.4042     3.43328e-29 
        58.4367     3.61417e-29 
        58.4692     3.80457e-29 
        58.5017     4.00501e-29 
        58.5341     4.21601e-29 
        58.5667     4.43811e-29 
        58.5992     4.67194e-29 
        58.6318     4.91807e-29 
        58.6644     5.17717e-29 
         58.697     5.44992e-29 
        58.7296     5.73704e-29 
        58.7622      6.0393e-29 
        58.7949     6.35745e-29 
        58.8276     6.69239e-29 
        58.8603     7.04496e-29 
         58.893     7.41611e-29 
        58.9256     7.80684e-29 
        58.9584     8.21812e-29 
        58.9912     8.65109e-29 
         59.024     9.10684e-29 
        59.0568     9.58661e-29 
        59.0896     1.00917e-28 
        59.1224     1.06234e-28 
        59.1553      1.1183e-28 
        59.1882     1.17721e-28 
        59.2211     1.23924e-28 
         59.254     1.30452e-28 
        59.2869     1.37325e-28 
        59.3199      1.4456e-28 
        59.3529     1.52176e-28 
        59.3858     1.60193e-28 
        59.4187     1.68633e-28 
        59.4518     1.77517e-28 
        59.4849     1.86869e-28 
        59.5179     1.96713e-28 
        59.5509     2.07077e-28 
        59.5841     2.17987e-28 
        59.6171     2.29471e-28 
        59.6503      2.4156e-28 
        59.6835     2.54287e-28 
        59.7166     2.67683e-28 
        59.7498     2.81786e-28 
         59.783     2.96631e-28 
        59.8162     3.12258e-28 
        59.8494      3.2871e-28 
        59.8827     3.46028e-28 
        59.9161     3.64256e-28 
        59.9493     3.83448e-28 
        59.9826     4.03648e-28 
         60.016     4.24914e-28 
        60.0493     4.47301e-28 
        60.0826     4.70866e-28 
        60.1161     4.95671e-28 
        60.1495     5.21785e-28 
        60.1829     5.49276e-28 
        60.2163     5.78213e-28 
        60.2499     6.08674e-28 
        60.2833     6.40742e-28 
        60.3168     6.74499e-28 
        60.3503     7.10034e-28 
        60.3838     7.47441e-28 
        60.4174     7.86818e-28 
        60.4509     8.28271e-28 
        60.4846     8.71906e-28 
        60.5182     9.17842e-28 
        60.5518     9.66197e-28 
        60.5854      1.0171e-27 
        60.6191     1.07068e-27 
        60.6528     1.12709e-27 
        60.6865     1.18647e-27 
        60.7203     1.24898e-27 
         60.754     1.31477e-27 
        60.7878     1.38405e-27 
        60.8215     1.45695e-27 
        60.8554     1.53351e-27 
        60.8891     1.61039e-27 
         60.923     1.69049e-27 
        60.9568     1.77458e-27 
        60.9907     1.86286e-27 
        61.0246     1.95553e-27 
        61.0585      2.0528e-27 
        61.0925     2.15491e-27 
        61.1264     2.26211e-27 
        61.1604     2.37462e-27 
        61.1944     2.49275e-27 
        61.2284     2.61674e-27 
        61.2624     2.74691e-27 
        61.2965     2.88355e-27 
        61.3305       3.027e-27 
        61.3646     3.17756e-27 
        61.3987     3.33563e-27 
        61.4328     3.50156e-27 
        61.4669     3.67574e-27 
        61.5011     3.85859e-27 
        61.5353     4.05052e-27 
        61.5694     4.25202e-27 
        61.6037     4.46352e-27 
        61.6379     4.68555e-27 
        61.6721     4.91864e-27 
        61.7064      5.1633e-27 
        61.7407     5.42015e-27 
         61.775     5.68976e-27 
        61.8093     5.97279e-27 
        61.8437     6.26989e-27 
        61.8781     6.58178e-27 
        61.9124     6.90919e-27 
        61.9469     7.25287e-27 
        61.9813     7.61365e-27 
        62.0157      7.9924e-27 
        62.0502     8.38995e-27 
        62.0846     8.80731e-27 
        62.1191     9.24542e-27 
        62.1536     9.70532e-27 
        62.1882     1.01881e-26 
        62.2228     1.06949e-26 
        62.2574     1.12268e-26 
        62.2919     1.17854e-26 
        62.3265     1.23716e-26 
        62.3613     1.29869e-26 
        62.3959      1.3633e-26 
        62.4305     1.43112e-26 
        62.4652      1.5023e-26 
