# TLUSTY OSTAR2002+BSTAR2006
# teff = 32500 K (value for the effective temperature for the model. Temperatures are given in K)
# logg = 3.25 log(cm/s2) (value for Log(G) for the model.)
# z = 0.5  (Z/Z0)
#
# column 1: WAVELENGTH (ANGSTROM), Wavelength in Angstrom
# column 2: FLUX (ERG/CM2/S/A), Flux in erg/cm2/s/A
        44.8829      2.6934e-39 
        44.9078     2.81557e-39 
        44.9328     2.98836e-39 
        44.9578     3.17175e-39 
        44.9827      3.3664e-39 
        45.0077       3.573e-39 
        45.0327     3.79229e-39 
        45.0578     4.02502e-39 
        45.0828     4.27203e-39 
        45.1079     4.53421e-39 
        45.1329     4.81248e-39 
         45.158     5.10782e-39 
        45.1831     5.42131e-39 
        45.2082       5.754e-39 
        45.2333     6.10714e-39 
        45.2585     6.48194e-39 
        45.2836     6.87975e-39 
        45.3088     7.30194e-39 
        45.3339     7.75008e-39 
        45.3592      8.2257e-39 
        45.3844     8.73052e-39 
        45.4096      9.2663e-39 
        45.4348       9.835e-39 
        45.4601     1.04386e-38 
        45.4853     1.10792e-38 
        45.5106     1.17591e-38 
        45.5359     1.24808e-38 
        45.5612     1.32467e-38 
        45.5865     1.40597e-38 
        45.6118     1.49226e-38 
        45.6372     1.58384e-38 
        45.6626     1.68104e-38 
         45.688      1.7842e-38 
        45.7133     1.89371e-38 
        45.7388     2.00993e-38 
        45.7642     2.13327e-38 
        45.7896     2.26419e-38 
         45.815     2.40314e-38 
        45.8405     2.55064e-38 
         45.866     2.70717e-38 
        45.8915     2.87331e-38 
         45.917     3.04964e-38 
        45.9425     3.23681e-38 
         45.968     3.43544e-38 
        45.9936     3.64628e-38 
        46.0191     3.87005e-38 
        46.0447     4.10756e-38 
        46.0702     4.35965e-38 
        46.0959      4.6272e-38 
        46.1215     4.91117e-38 
        46.1471     5.21257e-38 
        46.1728     5.53247e-38 
        46.1984     5.87202e-38 
        46.2241     6.23237e-38 
        46.2498     6.61486e-38 
        46.2755     7.02082e-38 
        46.3012     7.45169e-38 
        46.3269     7.90902e-38 
        46.3527     8.39438e-38 
        46.3784     8.90957e-38 
        46.4042     9.45636e-38 
          46.43     1.00367e-37 
        46.4558     1.06527e-37 
        46.4816     1.13064e-37 
        46.5074     1.20003e-37 
        46.5333     1.27368e-37 
        46.5591     1.35184e-37 
         46.585     1.43481e-37 
        46.6109     1.52286e-37 
        46.6368     1.61574e-37 
        46.6627      1.7113e-37 
        46.6886     1.81261e-37 
        46.7146     1.91993e-37 
        46.7405     2.03359e-37 
        46.7665     2.15398e-37 
        46.7925     2.28151e-37 
        46.8185     2.41657e-37 
        46.8445     2.55962e-37 
        46.8705     2.71117e-37 
        46.8966     2.87166e-37 
        46.9226     3.04169e-37 
        46.9487     3.22175e-37 
        46.9748     3.41247e-37 
        47.0009     3.61451e-37 
        47.0271     3.82848e-37 
        47.0532     4.05513e-37 
        47.0794      4.2952e-37 
        47.1055     4.54949e-37 
        47.1317     4.81883e-37 
        47.1579     5.10411e-37 
        47.1841     5.40628e-37 
        47.2103     5.72634e-37 
        47.2366     6.06534e-37 
        47.2628     6.42442e-37 
         47.289     6.80476e-37 
        47.3154      7.2076e-37 
        47.3416     7.63433e-37 
        47.3679     8.08628e-37 
        47.3943     8.56499e-37 
        47.4206     9.07205e-37 
        47.4469     9.60914e-37 
        47.4733      1.0178e-36 
        47.4997     1.07806e-36 
        47.5261     1.14188e-36 
        47.5525     1.20948e-36 
        47.5789     1.28108e-36 
        47.6054     1.35692e-36 
        47.6318     1.43726e-36 
        47.6583     1.52234e-36 
        47.6847     1.61247e-36 
        47.7113     1.70792e-36 
        47.7378     1.80905e-36 
        47.7643     1.91614e-36 
        47.7908     2.02957e-36 
        47.8174     2.14974e-36 
         47.844     2.27699e-36 
        47.8706      2.4118e-36 
        47.8971     2.55459e-36 
        47.9238     2.70582e-36 
        47.9505     2.86601e-36 
        47.9771     3.03568e-36 
        48.0037     3.21539e-36 
        48.0304     3.40574e-36 
        48.0571     3.60737e-36 
        48.0838     3.82094e-36 
        48.1105     4.04715e-36 
        48.1372     4.28674e-36 
         48.164     4.54052e-36 
        48.1908     4.80933e-36 
        48.2175     5.09405e-36 
        48.2444     5.39562e-36 
        48.2712     5.71505e-36 
         48.298     6.05339e-36 
        48.3248     6.41177e-36 
        48.3517     6.79134e-36 
        48.3785     7.19341e-36 
        48.4054     7.61927e-36 
        48.4323     8.07035e-36 
        48.4592     8.54812e-36 
        48.4862     9.05417e-36 
        48.5131     9.59126e-36 
          48.54     1.01444e-35 
         48.567     1.07234e-35 
         48.594     1.13355e-35 
         48.621     1.19825e-35 
         48.648     1.26665e-35 
        48.6751     1.33895e-35 
        48.7022     1.41537e-35 
        48.7292     1.49616e-35 
        48.7563     1.58157e-35 
        48.7834     1.67184e-35 
        48.8105     1.76727e-35 
        48.8376     1.86815e-35 
        48.8647     1.97478e-35 
        48.8919     2.08751e-35 
         48.919     2.20666e-35 
        48.9463     2.33262e-35 
        48.9735     2.46576e-35 
        49.0007     2.60651e-35 
        49.0279     2.75529e-35 
        49.0551     2.91256e-35 
        49.0824     3.07881e-35 
        49.1097     3.25456e-35 
         49.137     3.44032e-35 
        49.1643      3.6367e-35 
        49.1916     3.84428e-35 
        49.2189     4.06372e-35 
        49.2463     4.29569e-35 
        49.2737     4.54086e-35 
         49.301     4.80007e-35 
        49.3284     5.07405e-35 
        49.3559     5.36369e-35 
        49.3833     5.66985e-35 
        49.4107      5.9935e-35 
        49.4382      6.3356e-35 
        49.4656     6.69724e-35 
        49.4932      7.0795e-35 
        49.5206     7.48361e-35 
        49.5481     7.91079e-35 
        49.5757     8.36233e-35 
        49.6032     8.83966e-35 
        49.6308     9.34421e-35 
        49.6584      9.8776e-35 
         49.686     1.04414e-34 
        49.7136     1.10374e-34 
        49.7412     1.16674e-34 
        49.7688     1.23334e-34 
        49.7965     1.30374e-34 
        49.8242     1.37816e-34 
        49.8519     1.45682e-34 
        49.8796     1.53998e-34 
        49.9073     1.62789e-34 
         49.935     1.72081e-34 
        49.9627     1.81903e-34 
        49.9906     1.92285e-34 
        50.0183     2.03261e-34 
        50.0462     2.14864e-34 
        50.0739     2.27128e-34 
        50.1018     2.40093e-34 
        50.1296     2.53797e-34 
        50.1574     2.68285e-34 
        50.1853     2.83597e-34 
        50.2132     2.99785e-34 
        50.2412     3.16897e-34 
         50.269     3.34986e-34 
         50.297     3.54108e-34 
        50.3249      3.7432e-34 
        50.3529     3.95687e-34 
        50.3809     4.18272e-34 
        50.4088     4.42147e-34 
        50.4369     4.67383e-34 
        50.4649     4.94063e-34 
         50.493     5.22264e-34 
         50.521     5.52077e-34 
        50.5491     5.83588e-34 
        50.5771       6.167e-34 
        50.6053       6.506e-34 
        50.6334      6.8638e-34 
        50.6616     7.24127e-34 
        50.6897     7.63952e-34 
        50.7179     8.05964e-34 
        50.7461     8.50288e-34 
        50.7742      8.9705e-34 
        50.8025     9.46384e-34 
        50.8307     9.98427e-34 
        50.8589     1.05334e-33 
        50.8872     1.11126e-33 
        50.9155     1.17238e-33 
        50.9438     1.23685e-33 
        50.9721     1.30487e-33 
        51.0004     1.37664e-33 
        51.0288     1.45234e-33 
        51.0571     1.53221e-33 
        51.0855     1.61647e-33 
        51.1139     1.70538e-33 
        51.1423     1.79917e-33 
        51.1707     1.89811e-33 
        51.1991      2.0025e-33 
        51.2276     2.11262e-33 
         51.256     2.22881e-33 
        51.2845     2.35138e-33 
        51.3131     2.48068e-33 
        51.3415     2.61711e-33 
          51.37     2.76105e-33 
        51.3987     2.91288e-33 
        51.4272     3.07307e-33 
        51.4557     3.24208e-33 
        51.4844     3.42038e-33 
        51.5129     3.60849e-33 
        51.5416     3.80692e-33 
        51.5703     4.01629e-33 
        51.5989     4.23717e-33 
        51.6276     4.47018e-33 
        51.6563     4.71601e-33 
         51.685     4.97537e-33 
        51.7137       5.249e-33 
        51.7424     5.53767e-33 
        51.7712     5.84221e-33 
           51.8     6.16349e-33 
        51.8287     6.50246e-33 
        51.8575     6.86007e-33 
        51.8863     7.23733e-33 
        51.9152     7.63535e-33 
         51.944     8.05524e-33 
        51.9729     8.49826e-33 
        52.0018     8.96559e-33 
        52.0307     9.45866e-33 
        52.0596     9.97883e-33 
        52.0885     1.05276e-32 
        52.1175     1.11066e-32 
        52.1464     1.17174e-32 
        52.1754     1.23618e-32 
        52.2044     1.30416e-32 
        52.2334     1.37589e-32 
        52.2624     1.45155e-32 
        52.2915     1.53138e-32 
        52.3205     1.61559e-32 
        52.3496     1.70445e-32 
        52.3787     1.79818e-32 
        52.4078     1.89707e-32 
        52.4369      2.0014e-32 
        52.4661     2.11146e-32 
        52.4952     2.22759e-32 
        52.5244     2.35009e-32 
        52.5536     2.47934e-32 
        52.5828     2.61569e-32 
        52.6121     2.75953e-32 
        52.6413     2.91129e-32 
        52.6705      3.0714e-32 
        52.6997     3.24031e-32 
         52.729     3.41852e-32 
        52.7583     3.60651e-32 
        52.7877     3.80484e-32 
         52.817     4.01089e-32 
        52.8463     4.22271e-32 
        52.8758      4.4462e-32 
        52.9051     4.68153e-32 
        52.9345      4.9293e-32 
         52.964      5.1902e-32 
        52.9934     5.46491e-32 
        53.0228     5.75416e-32 
        53.0523     6.05872e-32 
        53.0818     6.37938e-32 
        53.1113     6.71702e-32 
        53.1407     7.07254e-32 
        53.1703     7.44686e-32 
        53.1999     7.84101e-32 
        53.2294     8.25601e-32 
         53.259     8.69297e-32 
        53.2886      9.1531e-32 
        53.3182     9.63753e-32 
        53.3478     1.01476e-31 
        53.3775     1.06847e-31 
        53.4071     1.12502e-31 
        53.4368     1.18457e-31 
        53.4665     1.24727e-31 
        53.4963     1.31328e-31 
         53.526     1.38279e-31 
        53.5557     1.45598e-31 
        53.5855     1.53304e-31 
        53.6153     1.61418e-31 
         53.645     1.69961e-31 
        53.6749     1.78956e-31 
        53.7047     1.88428e-31 
        53.7345     1.98401e-31 
        53.7644     2.08902e-31 
        53.7942      2.1996e-31 
        53.8242     2.31601e-31 
         53.854     2.43859e-31 
        53.8839     2.56766e-31 
        53.9139     2.70357e-31 
        53.9439     2.84665e-31 
        53.9739     2.99731e-31 
        54.0038     3.15596e-31 
        54.0339     3.32299e-31 
        54.0639     3.49887e-31 
         54.094     3.68406e-31 
         54.124     3.87905e-31 
         54.154     4.08436e-31 
        54.1842     4.30053e-31 
        54.2143     4.52815e-31 
        54.2444     4.76781e-31 
        54.2745     5.02016e-31 
        54.3047     5.28586e-31 
        54.3349     5.56563e-31 
        54.3651     5.86021e-31 
        54.3953     6.17039e-31 
        54.4255     6.49697e-31 
        54.4557     6.84083e-31 
         54.486      7.2029e-31 
        54.5163     7.58411e-31 
        54.5466     7.98554e-31 
        54.5769      8.4082e-31 
        54.6072     8.85322e-31 
        54.6376      9.3218e-31 
        54.6679     9.81517e-31 
        54.6984     1.03347e-30 
        54.7287     1.08817e-30 
        54.7591     1.14576e-30 
        54.7895      1.2064e-30 
          54.82     1.27025e-30 
        54.8505     1.33749e-30 
         54.881     1.40827e-30 
        54.9115     1.48281e-30 
         54.942     1.56129e-30 
        54.9725     1.64393e-30 
         55.003     1.73094e-30 
        55.0336     1.82255e-30 
        55.0642     1.91901e-30 
        55.0948     2.02058e-30 
        55.1254     2.12752e-30 
        55.1561     2.24013e-30 
        55.1867     2.35869e-30 
        55.2174     2.48353e-30 
         55.248     2.61384e-30 
        55.2788     2.74672e-30 
        55.3095      2.8865e-30 
        55.3402     3.03338e-30 
         55.371     3.18774e-30 
        55.4017     3.34997e-30 
        55.4325     3.52042e-30 
        55.4633     3.69957e-30 
        55.4941     3.88783e-30 
         55.525     4.08566e-30 
        55.5558     4.29358e-30 
        55.5867     4.51206e-30 
        55.6176     4.74165e-30 
        55.6485     4.98295e-30 
        55.6794     5.23651e-30 
        55.7104     5.50298e-30 
        55.7413       5.783e-30 
        55.7723     6.07728e-30 
        55.8033     6.38654e-30 
        55.8343     6.71151e-30 
        55.8653     7.05305e-30 
        55.8964     7.41195e-30 
        55.9275     7.78912e-30 
        55.9586     8.18547e-30 
        55.9896     8.60201e-30 
        56.0208     9.03973e-30 
        56.0519     9.49973e-30 
         56.083     9.98314e-30 
        56.1142     1.04911e-29 
        56.1453      1.1025e-29 
        56.1766      1.1586e-29 
        56.2077     1.21756e-29 
        56.2391     1.27952e-29 
        56.2703     1.34462e-29 
        56.3016     1.41305e-29 
        56.3328     1.48495e-29 
        56.3642     1.56052e-29 
        56.3954     1.63993e-29 
        56.4268     1.72338e-29 
        56.4582     1.81108e-29 
        56.4896     1.90323e-29 
        56.5209     2.00009e-29 
        56.5523     2.10186e-29 
        56.5837     2.20882e-29 
        56.6152     2.32122e-29 
        56.6467     2.43934e-29 
        56.6782     2.56346e-29 
        56.7096     2.69392e-29 
        56.7412       2.831e-29 
        56.7726     2.97507e-29 
        56.8043     3.12644e-29 
        56.8358     3.28554e-29 
        56.8674     3.45273e-29 
         56.899     3.62842e-29 
        56.9306     3.81306e-29 
        56.9623      4.0071e-29 
        56.9939       4.211e-29 
        57.0256      4.4253e-29 
        57.0572     4.65048e-29 
         57.089     4.88712e-29 
        57.1207     5.13581e-29 
        57.1524     5.39716e-29 
        57.1841     5.67181e-29 
         57.216      5.9604e-29 
        57.2478     6.26372e-29 
        57.2795     6.58247e-29 
        57.3114     6.91742e-29 
        57.3433     7.26942e-29 
        57.3751     7.63933e-29 
         57.407     8.02809e-29 
        57.4389     8.43661e-29 
        57.4708     8.86591e-29 
        57.5028     9.31706e-29 
        57.5347     9.79119e-29 
        57.5667     1.02894e-28 
        57.5987      1.0813e-28 
        57.6307     1.13633e-28 
        57.6627     1.19414e-28 
        57.6948     1.25492e-28 
        57.7268     1.31878e-28 
        57.7589     1.38588e-28 
         57.791      1.4564e-28 
        57.8231     1.53051e-28 
        57.8552      1.6084e-28 
        57.8874     1.69024e-28 
        57.9196     1.77561e-28 
        57.9517     1.86236e-28 
        57.9839     1.95337e-28 
        58.0162     2.04882e-28 
        58.0485     2.14893e-28 
        58.0806     2.25395e-28 
        58.1129     2.36408e-28 
        58.1453      2.4796e-28 
        58.1776     2.60078e-28 
        58.2099     2.72787e-28 
        58.2422     2.86116e-28 
        58.2746     3.00098e-28 
         58.307     3.14762e-28 
        58.3393     3.30143e-28 
        58.3718     3.46276e-28 
        58.4042     3.63197e-28 
        58.4367     3.80945e-28 
        58.4692      3.9956e-28 
        58.5017     4.19085e-28 
        58.5341     4.39564e-28 
        58.5667     4.61043e-28 
        58.5992     4.83573e-28 
        58.6318     5.07202e-28 
        58.6644     5.31987e-28 
         58.697     5.57983e-28 
        58.7296     5.85249e-28 
        58.7622     6.13848e-28 
        58.7949     6.43843e-28 
        58.8276     6.75306e-28 
        58.8603     7.08304e-28 
         58.893     7.42916e-28 
        58.9256     7.79221e-28 
        58.9584     8.17297e-28 
        58.9912     8.57236e-28 
         59.024     8.99123e-28 
        59.0568      9.4306e-28 
        59.0896     9.89142e-28 
        59.1224     1.03748e-27 
        59.1553     1.08818e-27 
        59.1882     1.14135e-27 
        59.2211     1.19712e-27 
         59.254     1.25562e-27 
        59.2869     1.31697e-27 
        59.3199     1.38133e-27 
        59.3529     1.44883e-27 
        59.3858     1.51964e-27 
        59.4187     1.59389e-27 
        59.4518     1.67177e-27 
        59.4849     1.75347e-27 
        59.5179     1.83915e-27 
        59.5509     1.92903e-27 
        59.5841     2.02329e-27 
        59.6171     2.12216e-27 
        59.6503     2.22586e-27 
        59.6835     2.33463e-27 
        59.7166      2.4487e-27 
        59.7498     2.56836e-27 
         59.783     2.69387e-27 
        59.8162      2.8255e-27 
        59.8494     2.96357e-27 
        59.8827      3.1084e-27 
        59.9161     3.26028e-27 
        59.9493     3.41961e-27 
        59.9826     3.58671e-27 
         60.016     3.76197e-27 
        60.0493      3.9458e-27 
        60.0826     4.13862e-27 
        60.1161     4.34084e-27 
        60.1495     4.55296e-27 
        60.1829     4.77546e-27 
        60.2163     5.00881e-27 
        60.2499     5.25356e-27 
        60.2833     5.51029e-27 
        60.3168     5.77955e-27 
        60.3503     6.06197e-27 
        60.3838      6.3582e-27 
        60.4174     6.66888e-27 
        60.4509     6.99478e-27 
        60.4846     7.33657e-27 
        60.5182     7.69509e-27 
        60.5518     8.07111e-27 
        60.5854     8.46551e-27 
        60.6191     8.87918e-27 
        60.6528     9.31306e-27 
        60.6865     9.76816e-27 
        60.7203     1.02454e-26 
         60.754     1.07461e-26 
        60.7878     1.12713e-26 
        60.8215      1.1822e-26 
        60.8554     1.23988e-26 
        60.8891     1.29829e-26 
         60.923     1.35913e-26 
        60.9568     1.42284e-26 
        60.9907     1.48952e-26 
        61.0246     1.55932e-26 
        61.0585     1.63241e-26 
        61.0925     1.70891e-26 
        61.1264     1.78901e-26 
        61.1604     1.87285e-26 
        61.1944     1.96062e-26 
        61.2284     2.05251e-26 
        61.2624      2.1487e-26 
        61.2965      2.2494e-26 
        61.3305     2.35483e-26 
        61.3646     2.46519e-26 
        61.3987     2.58072e-26 
        61.4328     2.70168e-26 
        61.4669      2.8283e-26 
        61.5011     2.96085e-26 
        61.5353     3.09961e-26 
        61.5694     3.24488e-26 
        61.6037     3.39695e-26 
        61.6379     3.55616e-26 
        61.6721     3.72283e-26 
        61.7064      3.8973e-26 
        61.7407     4.07996e-26 
         61.775     4.27116e-26 
        61.8093     4.47134e-26 
        61.8437     4.68089e-26 
        61.8781     4.90027e-26 
        61.9124     5.12993e-26 
        61.9469     5.37035e-26 
        61.9813     5.62204e-26 
        62.0157     5.88553e-26 
        62.0502     6.16136e-26 
        62.0846     6.45013e-26 
        62.1191     6.75243e-26 
        62.1536      7.0689e-26 
        62.1882     7.40019e-26 
        62.2228     7.74699e-26 
        62.2574     8.11006e-26 
        62.2919     8.49016e-26 
        62.3265     8.88808e-26 
        62.3613      9.3046e-26 
        62.3959     9.74065e-26 
        62.4305     1.01972e-25 
        62.4652     1.06751e-25 
