# TLUSTY OSTAR2002+BSTAR2006
# teff = 32500 K (value for the effective temperature for the model. Temperatures are given in K)
# logg = 4.25 log(cm/s2) (value for Log(G) for the model.)
# z = 0.5  (Z/Z0)
#
# column 1: WAVELENGTH (ANGSTROM), Wavelength in Angstrom
# column 2: FLUX (ERG/CM2/S/A), Flux in erg/cm2/s/A
        44.8829     5.65956e-41 
        44.9078     5.94194e-41 
        44.9328     6.34324e-41 
        44.9578     6.77163e-41 
        44.9827     7.22898e-41 
        45.0077     7.71721e-41 
        45.0327      8.2384e-41 
        45.0578     8.79478e-41 
        45.0828     9.38878e-41 
        45.1079     1.00228e-40 
        45.1329     1.06997e-40 
         45.158     1.14224e-40 
        45.1831     1.21938e-40 
        45.2082     1.30173e-40 
        45.2333     1.38965e-40 
        45.2585      1.4835e-40 
        45.2836     1.58369e-40 
        45.3088     1.69065e-40 
        45.3339     1.80483e-40 
        45.3592     1.92672e-40 
        45.3844     2.05684e-40 
        45.4096     2.19576e-40 
        45.4348     2.34405e-40 
        45.4601     2.50237e-40 
        45.4853     2.67136e-40 
        45.5106     2.85178e-40 
        45.5359     3.04438e-40 
        45.5612     3.24999e-40 
        45.5865     3.46949e-40 
        45.6118      3.7038e-40 
        45.6372     3.95395e-40 
        45.6626     4.22099e-40 
         45.688     4.50606e-40 
        45.7133     4.81039e-40 
        45.7388     5.13524e-40 
        45.7642     5.48207e-40 
        45.7896     5.85233e-40 
         45.815     6.24757e-40 
        45.8405     6.66952e-40 
         45.866     7.11993e-40 
        45.8915     7.60079e-40 
         45.917     8.11411e-40 
        45.9425     8.66213e-40 
         45.968     9.24714e-40 
        45.9936     9.87166e-40 
        46.0191     1.05384e-39 
        46.0447     1.12501e-39 
        46.0702     1.20099e-39 
        46.0959      1.2821e-39 
        46.1215     1.36869e-39 
        46.1471     1.46112e-39 
        46.1728      1.5598e-39 
        46.1984     1.66515e-39 
        46.2241     1.77761e-39 
        46.2498     1.89767e-39 
        46.2755     2.02582e-39 
        46.3012     2.16264e-39 
        46.3269     2.30871e-39 
        46.3527     2.46461e-39 
        46.3784     2.63107e-39 
        46.4042     2.80877e-39 
          46.43     2.99845e-39 
        46.4558     3.20097e-39 
        46.4816     3.41715e-39 
        46.5074     3.64794e-39 
        46.5333      3.8943e-39 
        46.5591     4.15731e-39 
         46.585     4.43809e-39 
        46.6109     4.73783e-39 
        46.6368     5.05529e-39 
        46.6627     5.38184e-39 
        46.6886     5.72976e-39 
        46.7146     6.10014e-39 
        46.7405     6.49451e-39 
        46.7665     6.91436e-39 
        46.7925     7.36135e-39 
        46.8185     7.83724e-39 
        46.8445     8.34389e-39 
        46.8705      8.8833e-39 
        46.8966     9.45758e-39 
        46.9226      1.0069e-38 
        46.9487     1.07199e-38 
        46.9748     1.14129e-38 
        47.0009     1.21507e-38 
        47.0271     1.29362e-38 
        47.0532     1.37725e-38 
        47.0794     1.46628e-38 
        47.1055     1.56108e-38 
        47.1317     1.66199e-38 
        47.1579     1.76944e-38 
        47.1841     1.88382e-38 
        47.2103     2.00561e-38 
        47.2366     2.13526e-38 
        47.2628      2.2733e-38 
         47.289     2.42027e-38 
        47.3154     2.57672e-38 
        47.3416     2.74332e-38 
        47.3679     2.92065e-38 
        47.3943     3.10945e-38 
        47.4206     3.31047e-38 
        47.4469     3.52448e-38 
        47.4733     3.75234e-38 
        47.4997      3.9949e-38 
        47.5261     4.25318e-38 
        47.5525     4.52813e-38 
        47.5789     4.82086e-38 
        47.6054     5.13251e-38 
        47.6318      5.4643e-38 
        47.6583     5.81756e-38 
        47.6847     6.19366e-38 
        47.7113     6.59403e-38 
        47.7378     7.02031e-38 
        47.7643     7.47418e-38 
        47.7908     7.95735e-38 
        47.8174     8.47177e-38 
         47.844     9.01943e-38 
        47.8706     9.60251e-38 
        47.8971     1.02233e-37 
        47.9238     1.08842e-37 
        47.9505     1.15878e-37 
        47.9771     1.23369e-37 
        48.0037     1.31345e-37 
        48.0304     1.39836e-37 
        48.0571     1.48876e-37 
        48.0838       1.585e-37 
        48.1105     1.68746e-37 
        48.1372     1.79656e-37 
         48.164      1.9127e-37 
        48.1908     2.03634e-37 
        48.2175     2.16799e-37 
        48.2444     2.30814e-37 
        48.2712     2.45735e-37 
         48.298     2.61622e-37 
        48.3248     2.78535e-37 
        48.3517     2.96541e-37 
        48.3785     3.15712e-37 
        48.4054     3.36121e-37 
        48.4323      3.5785e-37 
        48.4592     3.80984e-37 
        48.4862     4.05614e-37 
        48.5131     4.31891e-37 
          48.54      4.5892e-37 
         48.567     4.87264e-37 
         48.594     5.17361e-37 
         48.621     5.49314e-37 
         48.648     5.83242e-37 
        48.6751     6.19264e-37 
        48.7022     6.57513e-37 
        48.7292     6.98123e-37 
        48.7563     7.41243e-37 
        48.7834     7.87024e-37 
        48.8105     8.35635e-37 
        48.8376     8.87248e-37 
        48.8647     9.42047e-37 
        48.8919     1.00023e-36 
         48.919     1.06201e-36 
        48.9463      1.1276e-36 
        48.9735     1.19725e-36 
        49.0007      1.2712e-36 
        49.0279     1.34971e-36 
        49.0551     1.43308e-36 
        49.0824     1.52159e-36 
        49.1097     1.61557e-36 
         49.137     1.71535e-36 
        49.1643      1.8213e-36 
        49.1916     1.93379e-36 
        49.2189     2.05322e-36 
        49.2463     2.18005e-36 
        49.2737     2.31469e-36 
         49.301     2.45766e-36 
        49.3284     2.60945e-36 
        49.3559     2.77062e-36 
        49.3833     2.94174e-36 
        49.4107     3.12344e-36 
        49.4382     3.31636e-36 
        49.4656     3.52119e-36 
        49.4932     3.73866e-36 
        49.5206     3.96959e-36 
        49.5481     4.21476e-36 
        49.5757     4.47509e-36 
        49.6032     4.75148e-36 
        49.6308     5.04496e-36 
        49.6584     5.35655e-36 
         49.686     5.68738e-36 
        49.7136     6.03866e-36 
        49.7412     6.41164e-36 
        49.7688     6.80766e-36 
        49.7965     7.22812e-36 
        49.8242     7.67457e-36 
        49.8519     8.14856e-36 
        49.8796     8.65184e-36 
        49.9073     9.18624e-36 
         49.935     9.75361e-36 
        49.9627      1.0356e-35 
        49.9906     1.09956e-35 
        50.0183     1.16748e-35 
        50.0462     1.23959e-35 
        50.0739     1.31615e-35 
        50.1018     1.39744e-35 
        50.1296     1.48375e-35 
        50.1574     1.57539e-35 
        50.1853     1.67269e-35 
        50.2132     1.77601e-35 
        50.2412      1.8857e-35 
         50.269     2.00218e-35 
         50.297     2.12583e-35 
        50.3249     2.25714e-35 
        50.3529     2.39655e-35 
        50.3809     2.54457e-35 
        50.4088     2.70173e-35 
        50.4369      2.8686e-35 
        50.4649     3.04577e-35 
         50.493     3.23389e-35 
         50.521     3.43364e-35 
        50.5491     3.64571e-35 
        50.5771     3.86906e-35 
        50.6053      4.0969e-35 
        50.6334     4.33819e-35 
        50.6616     4.59368e-35 
        50.6897     4.86423e-35 
        50.7179     5.15069e-35 
        50.7461     5.45404e-35 
        50.7742     5.77525e-35 
        50.8025     6.11536e-35 
        50.8307     6.47552e-35 
        50.8589     6.85689e-35 
        50.8872      7.2607e-35 
        50.9155     7.68832e-35 
        50.9438     8.14112e-35 
        50.9721     8.62056e-35 
        51.0004     9.12828e-35 
        51.0288     9.66586e-35 
        51.0571     1.02351e-34 
        51.0855     1.08379e-34 
        51.1139     1.14762e-34 
        51.1423     1.21521e-34 
        51.1707     1.28677e-34 
        51.1991     1.36256e-34 
        51.2276      1.4428e-34 
         51.256     1.52777e-34 
        51.2845     1.61774e-34 
        51.3131     1.71302e-34 
        51.3415     1.81391e-34 
          51.37     1.92074e-34 
        51.3987     2.03385e-34 
        51.4272     2.15364e-34 
        51.4557     2.28048e-34 
        51.4844     2.41477e-34 
        51.5129       2.557e-34 
        51.5416     2.70758e-34 
        51.5703     2.86704e-34 
        51.5989      3.0359e-34 
        51.6276     3.21468e-34 
        51.6563     3.40401e-34 
         51.685     3.60448e-34 
        51.7137     3.81677e-34 
        51.7424     4.04154e-34 
        51.7712     4.27956e-34 
           51.8     4.53159e-34 
        51.8287     4.79849e-34 
        51.8575     5.08109e-34 
        51.8863     5.38033e-34 
        51.9152      5.6972e-34 
         51.944     6.03272e-34 
        51.9729     6.38802e-34 
        52.0018     6.76422e-34 
        52.0307     7.16259e-34 
        52.0596     7.58442e-34 
        52.0885     8.03109e-34 
        52.1175     8.50406e-34 
        52.1464     9.00491e-34 
        52.1754     9.53524e-34 
        52.2044     1.00968e-33 
        52.2334     1.06915e-33 
        52.2624     1.13211e-33 
        52.2915     1.19878e-33 
        52.3205     1.26938e-33 
        52.3496     1.34414e-33 
        52.3787     1.42331e-33 
        52.4078     1.50713e-33 
        52.4369     1.59589e-33 
        52.4661     1.68986e-33 
        52.4952      1.7894e-33 
        52.5244     1.89479e-33 
        52.5536     2.00637e-33 
        52.5828     2.12454e-33 
        52.6121     2.24965e-33 
        52.6413     2.38214e-33 
        52.6705     2.52244e-33 
        52.6997     2.67099e-33 
         52.729     2.82829e-33 
        52.7583     2.99486e-33 
        52.7877     3.17123e-33 
         52.817     3.35423e-33 
        52.8463     3.54176e-33 
        52.8758     3.74024e-33 
        52.9051     3.94986e-33 
        52.9345     4.17121e-33 
         52.964     4.40496e-33 
        52.9934     4.65183e-33 
        53.0228     4.91253e-33 
        53.0523     5.18784e-33 
        53.0818     5.47857e-33 
        53.1113     5.78559e-33 
        53.1407     6.10983e-33 
        53.1703     6.45222e-33 
        53.1999     6.81383e-33 
        53.2294     7.19568e-33 
         53.259     7.59893e-33 
        53.2886      8.0248e-33 
        53.3182     8.47451e-33 
        53.3478     8.94945e-33 
        53.3775       9.451e-33 
        53.4071     9.98064e-33 
        53.4368       1.054e-32 
        53.4665     1.11307e-32 
        53.4963     1.17544e-32 
         53.526     1.24132e-32 
        53.5557     1.31088e-32 
        53.5855     1.38435e-32 
        53.6153     1.46193e-32 
         53.645     1.54386e-32 
        53.6749     1.63038e-32 
        53.7047     1.72174e-32 
        53.7345     1.81823e-32 
        53.7644     1.92014e-32 
        53.7942     2.02774e-32 
        53.8242     2.14138e-32 
         53.854     2.26139e-32 
        53.8839     2.38813e-32 
        53.9139     2.52195e-32 
        53.9439     2.66329e-32 
        53.9739     2.81254e-32 
        54.0038     2.97017e-32 
        54.0339      3.1366e-32 
        54.0639     3.31239e-32 
         54.094     3.49802e-32 
         54.124     3.69405e-32 
         54.154     3.90108e-32 
        54.1842     4.11971e-32 
        54.2143     4.35058e-32 
        54.2444      4.5944e-32 
        54.2745     4.85187e-32 
        54.3047     5.12377e-32 
        54.3349     5.41092e-32 
        54.3651     5.71416e-32 
        54.3953     6.03439e-32 
        54.4255     6.37257e-32 
        54.4557     6.72971e-32 
         54.486     7.10685e-32 
        54.5163     7.50511e-32 
        54.5466     7.92573e-32 
        54.5769      8.3699e-32 
        54.6072     8.83897e-32 
        54.6376     9.33432e-32 
        54.6679     9.85741e-32 
        54.6984     1.04098e-31 
        54.7287     1.09932e-31 
        54.7591     1.16093e-31 
        54.7895     1.22599e-31 
          54.82      1.2947e-31 
        54.8505     1.36725e-31 
         54.881     1.44388e-31 
        54.9115     1.52479e-31 
         54.942     1.61025e-31 
        54.9725     1.70049e-31 
         55.003     1.79579e-31 
        55.0336     1.89643e-31 
        55.0642     2.00271e-31 
        55.0948     2.11493e-31 
        55.1254     2.23346e-31 
        55.1561     2.35863e-31 
        55.1867     2.49081e-31 
        55.2174      2.6304e-31 
         55.248     2.77606e-31 
        55.2788      2.9237e-31 
        55.3095     3.07928e-31 
        55.3402     3.24316e-31 
         55.371     3.41573e-31 
        55.4017     3.59752e-31 
        55.4325     3.78896e-31 
        55.4633      3.9906e-31 
        55.4941     4.20297e-31 
         55.525     4.42662e-31 
        55.5558      4.6622e-31 
        55.5867     4.91029e-31 
        55.6176     5.17159e-31 
        55.6485     5.44681e-31 
        55.6794     5.73667e-31 
        55.7104     6.04196e-31 
        55.7413     6.36348e-31 
        55.7723     6.70211e-31 
        55.8033     7.05878e-31 
        55.8343      7.4344e-31 
        55.8653     7.83004e-31 
        55.8964     8.24673e-31 
        55.9275     8.68559e-31 
        55.9586     9.14779e-31 
        55.9896     9.63462e-31 
        56.0208     1.01473e-30 
        56.0519     1.06873e-30 
         56.083     1.12561e-30 
        56.1142     1.18551e-30 
        56.1453      1.2486e-30 
        56.1766     1.31504e-30 
        56.2077     1.38502e-30 
        56.2391     1.45873e-30 
        56.2703     1.53635e-30 
        56.3016     1.61811e-30 
        56.3328     1.70422e-30 
        56.3642     1.79492e-30 
        56.3954     1.89044e-30 
        56.4268     1.99103e-30 
        56.4582     2.09699e-30 
        56.4896     2.20857e-30 
        56.5209     2.32612e-30 
        56.5523      2.4499e-30 
        56.5837     2.58028e-30 
        56.6152     2.71758e-30 
        56.6467     2.86219e-30 
        56.6782     3.01452e-30 
        56.7096     3.17495e-30 
        56.7412     3.34389e-30 
        56.7726     3.52185e-30 
        56.8043     3.70926e-30 
        56.8358     3.90666e-30 
        56.8674     4.11455e-30 
         56.899     4.33351e-30 
        56.9306     4.56413e-30 
        56.9623       4.807e-30 
        56.9939     5.06281e-30 
        57.0256     5.33224e-30 
        57.0572       5.616e-30 
         57.089     5.91487e-30 
        57.1207     6.22962e-30 
        57.1524     6.56115e-30 
        57.1841     6.91032e-30 
         57.216     7.27803e-30 
        57.2478     7.66534e-30 
        57.2795     8.07328e-30 
        57.3114      8.5029e-30 
        57.3433     8.95537e-30 
        57.3751     9.43196e-30 
         57.407     9.93389e-30 
        57.4389     1.04625e-29 
        57.4708     1.10193e-29 
        57.5028     1.16056e-29 
        57.5347     1.22233e-29 
        57.5667     1.28738e-29 
        57.5987     1.35589e-29 
        57.6307     1.42805e-29 
        57.6627     1.50404e-29 
        57.6948     1.58408e-29 
        57.7268     1.66838e-29 
        57.7589     1.75716e-29 
         57.791     1.85067e-29 
        57.8231     1.94916e-29 
        57.8552     2.05288e-29 
        57.8874     2.16212e-29 
        57.9196     2.27598e-29 
        57.9517     2.39079e-29 
        57.9839     2.51135e-29 
        58.0162     2.63799e-29 
        58.0485     2.77101e-29 
        58.0806     2.91074e-29 
        58.1129     3.05751e-29 
        58.1453     3.21169e-29 
        58.1776     3.37365e-29 
        58.2099     3.54376e-29 
        58.2422     3.72246e-29 
        58.2746     3.91017e-29 
         58.307     4.10734e-29 
        58.3393     4.31446e-29 
        58.3718       4.532e-29 
        58.4042     4.76054e-29 
        58.4367     5.00059e-29 
        58.4692     5.25275e-29 
        58.5017     5.51762e-29 
        58.5341     5.79586e-29 
        58.5667     6.08811e-29 
        58.5992      6.3951e-29 
        58.6318     6.71758e-29 
        58.6644     7.05632e-29 
         58.697     7.41214e-29 
        58.7296     7.78589e-29 
        58.7622     8.17851e-29 
        58.7949     8.59089e-29 
        58.8276     9.02409e-29 
        58.8603     9.47914e-29 
         58.893     9.95713e-29 
        58.9256     1.04593e-28 
        58.9584     1.09866e-28 
        58.9912     1.15407e-28 
         59.024     1.21226e-28 
        59.0568     1.27339e-28 
        59.0896     1.33759e-28 
        59.1224     1.40505e-28 
        59.1553      1.4759e-28 
        59.1882     1.55031e-28 
        59.2211     1.62849e-28 
         59.254     1.71061e-28 
        59.2869     1.79687e-28 
        59.3199     1.88748e-28 
        59.3529     1.98266e-28 
        59.3858     2.08264e-28 
        59.4187     2.18766e-28 
        59.4518     2.29796e-28 
        59.4849     2.41384e-28 
        59.5179     2.53556e-28 
        59.5509     2.66343e-28 
        59.5841     2.79772e-28 
        59.6171     2.93881e-28 
        59.6503     3.08698e-28 
        59.6835     3.24265e-28 
        59.7166     3.40617e-28 
        59.7498     3.57791e-28 
         59.783     3.75834e-28 
        59.8162     3.94785e-28 
        59.8494     4.14693e-28 
        59.8827     4.35604e-28 
        59.9161     4.57569e-28 
        59.9493     4.80644e-28 
        59.9826     5.04879e-28 
         60.016     5.30337e-28 
        60.0493     5.57081e-28 
        60.0826     5.85172e-28 
        60.1161     6.14678e-28 
        60.1495     6.45673e-28 
        60.1829     6.78233e-28 
        60.2163     7.12432e-28 
        60.2499     7.48357e-28 
        60.2833     7.86093e-28 
        60.3168     8.25733e-28 
        60.3503     8.67371e-28 
        60.3838     9.11109e-28 
        60.4174     9.57051e-28 
        60.4509     1.00531e-27 
        60.4846       1.056e-27 
        60.5182     1.10925e-27 
        60.5518     1.16519e-27 
        60.5854     1.22395e-27 
        60.6191     1.28566e-27 
        60.6528     1.35049e-27 
        60.6865     1.41859e-27 
        60.7203     1.49012e-27 
         60.754     1.56526e-27 
        60.7878     1.64419e-27 
        60.8215      1.7271e-27 
        60.8554     1.81396e-27 
        60.8891     1.90111e-27 
         60.923     1.99175e-27 
        60.9568     2.08672e-27 
        60.9907     2.18623e-27 
        61.0246     2.29047e-27 
        61.0585     2.39968e-27 
        61.0925     2.51409e-27 
        61.1264     2.63397e-27 
        61.1604     2.75956e-27 
        61.1944     2.89115e-27 
        61.2284       3.029e-27 
        61.2624     3.17343e-27 
        61.2965     3.32474e-27 
        61.3305     3.48328e-27 
        61.3646     3.64936e-27 
        61.3987     3.82337e-27 
        61.4328     4.00568e-27 
        61.4669     4.19667e-27 
        61.5011     4.39677e-27 
        61.5353     4.60641e-27 
        61.5694     4.82606e-27 
        61.6037     5.05616e-27 
        61.6379     5.29726e-27 
        61.6721     5.54984e-27 
        61.7064     5.81447e-27 
        61.7407      6.0917e-27 
         61.775     6.38216e-27 
        61.8093     6.68648e-27 
        61.8437     7.00528e-27 
        61.8781     7.33931e-27 
        61.9124     7.68926e-27 
        61.9469      8.0559e-27 
        61.9813        8.44e-27 
        62.0157     8.84246e-27 
        62.0502     9.26406e-27 
        62.0846      9.7058e-27 
        62.1191     1.01686e-26 
        62.1536     1.06535e-26 
        62.1882     1.11614e-26 
        62.2228     1.16936e-26 
        62.2574     1.22512e-26 
        62.2919     1.28354e-26 
        62.3265     1.34473e-26 
        62.3613     1.40885e-26 
        62.3959     1.47602e-26 
        62.4305     1.54641e-26 
        62.4652     1.62014e-26 
