# TLUSTY OSTAR2002+BSTAR2006
# teff = 35000 K (value for the effective temperature for the model. Temperatures are given in K)
# logg = 3.5 log(cm/s2) (value for Log(G) for the model.)
# z = 0.5  (Z/Z0)
#
# column 1: WAVELENGTH (ANGSTROM), Wavelength in Angstrom
# column 2: FLUX (ERG/CM2/S/A), Flux in erg/cm2/s/A
        44.8829     2.68527e-34 
        44.9078     2.80006e-34 
        44.9328       2.962e-34 
        44.9578     3.13331e-34 
        44.9827     3.31453e-34 
        45.0077     3.50624e-34 
        45.0327     3.70903e-34 
        45.0578     3.92356e-34 
        45.0828     4.15048e-34 
        45.1079     4.39054e-34 
        45.1329     4.64446e-34 
         45.158     4.91308e-34 
        45.1831     5.19725e-34 
        45.2082     5.49784e-34 
        45.2333     5.81582e-34 
        45.2585     6.15219e-34 
        45.2836     6.50801e-34 
        45.3088     6.88441e-34 
        45.3339     7.28261e-34 
        45.3592     7.70379e-34 
        45.3844     8.14935e-34 
        45.4096     8.62068e-34 
        45.4348     9.11931e-34 
        45.4601     9.64673e-34 
        45.4853     1.02047e-33 
        45.5106     1.07949e-33 
        45.5359     1.14192e-33 
        45.5612     1.20796e-33 
        45.5865     1.27783e-33 
        45.6118     1.35174e-33 
        45.6372     1.42992e-33 
        45.6626     1.51262e-33 
         45.688     1.60011e-33 
        45.7133     1.69265e-33 
        45.7388     1.79055e-33 
        45.7642      1.8941e-33 
        45.7896     2.00366e-33 
         45.815     2.11954e-33 
        45.8405     2.24213e-33 
         45.866     2.37182e-33 
        45.8915     2.50898e-33 
         45.917     2.65411e-33 
        45.9425     2.80761e-33 
         45.968     2.96999e-33 
        45.9936     3.14177e-33 
        46.0191     3.32348e-33 
        46.0447      3.5157e-33 
        46.0702     3.71905e-33 
        46.0959     3.93414e-33 
        46.1215     4.16167e-33 
        46.1471     4.40236e-33 
        46.1728     4.65699e-33 
        46.1984     4.92634e-33 
        46.2241     5.21125e-33 
        46.2498     5.51268e-33 
        46.2755     5.83151e-33 
        46.3012     6.16877e-33 
        46.3269     6.52557e-33 
        46.3527     6.90298e-33 
        46.3784     7.30223e-33 
        46.4042     7.72457e-33 
          46.43     8.17133e-33 
        46.4558     8.64396e-33 
        46.4816     9.14389e-33 
        46.5074     9.67274e-33 
        46.5333     1.02322e-32 
        46.5591      1.0824e-32 
         46.585       1.145e-32 
        46.6109     1.21122e-32 
        46.6368     1.28077e-32 
        46.6627     1.35194e-32 
        46.6886     1.42711e-32 
        46.7146     1.50646e-32 
        46.7405     1.59022e-32 
        46.7665     1.67864e-32 
        46.7925     1.77197e-32 
        46.8185     1.87049e-32 
        46.8445     1.97449e-32 
        46.8705     2.08428e-32 
        46.8966     2.20018e-32 
        46.9226     2.32251e-32 
        46.9487     2.45164e-32 
        46.9748     2.58795e-32 
        47.0009     2.73186e-32 
        47.0271     2.88374e-32 
        47.0532     3.04409e-32 
        47.0794     3.21333e-32 
        47.1055     3.39201e-32 
        47.1317     3.58061e-32 
        47.1579      3.7797e-32 
        47.1841     3.98984e-32 
        47.2103     4.21169e-32 
        47.2366     4.44587e-32 
        47.2628     4.69305e-32 
         47.289       4.954e-32 
        47.3154     5.22945e-32 
        47.3416     5.52022e-32 
        47.3679     5.82714e-32 
        47.3943     6.15113e-32 
        47.4206     6.49316e-32 
        47.4469     6.85418e-32 
        47.4733     7.23528e-32 
        47.4997     7.63756e-32 
        47.5261     8.06224e-32 
        47.5525     8.51048e-32 
        47.5789     8.98368e-32 
        47.6054     9.48319e-32 
        47.6318     1.00105e-31 
        47.6583     1.05671e-31 
        47.6847     1.11546e-31 
        47.7113     1.17748e-31 
        47.7378     1.24295e-31 
        47.7643     1.31206e-31 
        47.7908     1.38501e-31 
        47.8174     1.46202e-31 
         47.844     1.54331e-31 
        47.8706     1.62912e-31 
        47.8971      1.7197e-31 
        47.9238     1.81533e-31 
        47.9505     1.91625e-31 
        47.9771      2.0228e-31 
        48.0037     2.13527e-31 
        48.0304     2.25399e-31 
        48.0571     2.37932e-31 
        48.0838     2.51162e-31 
        48.1105     2.65126e-31 
        48.1372     2.79868e-31 
         48.164     2.95428e-31 
        48.1908     3.11854e-31 
        48.2175     3.29194e-31 
        48.2444     3.47497e-31 
        48.2712     3.66818e-31 
         48.298     3.87214e-31 
        48.3248     4.08745e-31 
        48.3517     4.31471e-31 
        48.3785     4.55462e-31 
        48.4054     4.80786e-31 
        48.4323     5.07518e-31 
        48.4592     5.35737e-31 
        48.4862     5.65524e-31 
        48.5131     5.97025e-31 
          48.54      6.2928e-31 
         48.567     6.62877e-31 
         48.594     6.98268e-31 
         48.621     7.35548e-31 
         48.648     7.74822e-31 
        48.6751     8.16188e-31 
        48.7022     8.59766e-31 
        48.7292     9.05669e-31 
        48.7563     9.54027e-31 
        48.7834     1.00496e-30 
        48.8105     1.05862e-30 
        48.8376     1.11514e-30 
        48.8647     1.17468e-30 
        48.8919      1.2374e-30 
         48.919     1.30346e-30 
        48.9463     1.37305e-30 
        48.9735     1.44636e-30 
        49.0007     1.52359e-30 
        49.0279     1.60493e-30 
        49.0551     1.69063e-30 
        49.0824     1.78089e-30 
        49.1097     1.87597e-30 
         49.137     1.97613e-30 
        49.1643     2.08163e-30 
        49.1916     2.19278e-30 
        49.2189     2.30986e-30 
        49.2463     2.43319e-30 
        49.2737     2.56309e-30 
         49.301     2.69994e-30 
        49.3284      2.8441e-30 
        49.3559     2.99595e-30 
        49.3833     3.15591e-30 
        49.4107      3.3244e-30 
        49.4382     3.50189e-30 
        49.4656     3.68886e-30 
        49.4932     3.88581e-30 
        49.5206     4.09329e-30 
        49.5481     4.31184e-30 
        49.5757     4.54205e-30 
        49.6032     4.78455e-30 
        49.6308        5.04e-30 
        49.6584      5.3091e-30 
         49.686     5.59255e-30 
        49.7136     5.89115e-30 
        49.7412     6.20567e-30 
        49.7688     6.53703e-30 
        49.7965     6.88604e-30 
        49.8242      7.2537e-30 
        49.8519     7.64097e-30 
        49.8796     8.04892e-30 
        49.9073     8.47869e-30 
         49.935     8.93136e-30 
        49.9627     9.40824e-30 
        49.9906     9.91052e-30 
        50.0183     1.04397e-29 
        50.0462      1.0997e-29 
        50.0739     1.15842e-29 
        50.1018     1.22027e-29 
        50.1296     1.28542e-29 
        50.1574     1.35405e-29 
        50.1853     1.42635e-29 
        50.2132      1.5025e-29 
        50.2412     1.58273e-29 
         50.269     1.66723e-29 
         50.297     1.75625e-29 
        50.3249     1.85001e-29 
        50.3529     1.94878e-29 
        50.3809     2.05283e-29 
        50.4088     2.16244e-29 
        50.4369     2.27789e-29 
        50.4649      2.3995e-29 
         50.493     2.52762e-29 
         50.521     2.66258e-29 
        50.5491     2.80474e-29 
        50.5771     2.95341e-29 
        50.6053     3.10461e-29 
        50.6334     3.26355e-29 
        50.6616     3.43063e-29 
        50.6897     3.60628e-29 
        50.7179      3.7909e-29 
        50.7461     3.98499e-29 
        50.7742       4.189e-29 
        50.8025     4.40347e-29 
        50.8307     4.62892e-29 
        50.8589     4.86591e-29 
        50.8872     5.11502e-29 
        50.9155     5.37689e-29 
        50.9438     5.65217e-29 
        50.9721     5.94154e-29 
        51.0004     6.24574e-29 
        51.0288     6.56549e-29 
        51.0571     6.90163e-29 
        51.0855     7.25498e-29 
        51.1139      7.6264e-29 
        51.1423     8.01684e-29 
        51.1707     8.42727e-29 
        51.1991     8.85873e-29 
        51.2276     9.31227e-29 
         51.256     9.78904e-29 
        51.2845     1.02902e-28 
        51.3131      1.0817e-28 
        51.3415     1.13708e-28 
          51.37      1.1953e-28 
        51.3987     1.25649e-28 
        51.4272     1.32082e-28 
        51.4557     1.38844e-28 
        51.4844     1.45953e-28 
        51.5129     1.53425e-28 
        51.5416     1.61279e-28 
        51.5703     1.69537e-28 
        51.5989     1.78217e-28 
        51.6276      1.8734e-28 
        51.6563     1.96931e-28 
         51.685     2.07013e-28 
        51.7137     2.17612e-28 
        51.7424     2.28753e-28 
        51.7712     2.40465e-28 
           51.8     2.52776e-28 
        51.8287     2.65718e-28 
        51.8575     2.79321e-28 
        51.8863     2.93622e-28 
        51.9152     3.08654e-28 
         51.944     3.24456e-28 
        51.9729     3.41068e-28 
        52.0018     3.58528e-28 
        52.0307     3.76885e-28 
        52.0596      3.9618e-28 
        52.0885     4.16463e-28 
        52.1175     4.37783e-28 
        52.1464     4.60198e-28 
        52.1754     4.83758e-28 
        52.2044     5.08525e-28 
        52.2334      5.3456e-28 
        52.2624     5.61927e-28 
        52.2915     5.90695e-28 
        52.3205     6.20939e-28 
        52.3496     6.52729e-28 
        52.3787     6.86147e-28 
        52.4078     7.21275e-28 
        52.4369     7.58201e-28 
        52.4661     7.97016e-28 
        52.4952     8.37822e-28 
        52.5244     8.80717e-28 
        52.5536     9.25807e-28 
        52.5828     9.73205e-28 
        52.6121     1.02303e-27 
        52.6413     1.07541e-27 
        52.6705     1.13046e-27 
        52.6997     1.18834e-27 
         52.729     1.24918e-27 
        52.7583     1.31313e-27 
        52.7877     1.38035e-27 
         52.817     1.44976e-27 
        52.8463     1.52066e-27 
        52.8758     1.59518e-27 
        52.9051     1.67335e-27 
        52.9345     1.75536e-27 
         52.964     1.84137e-27 
        52.9934     1.93161e-27 
        53.0228     2.02627e-27 
        53.0523     2.12556e-27 
        53.0818     2.22973e-27 
        53.1113     2.33899e-27 
        53.1407     2.45362e-27 
        53.1703     2.57384e-27 
        53.1999     2.69998e-27 
        53.2294     2.83229e-27 
         53.259     2.97108e-27 
        53.2886     3.11669e-27 
        53.3182     3.26941e-27 
        53.3478     3.42963e-27 
        53.3775      3.5977e-27 
        53.4071       3.774e-27 
        53.4368     3.95894e-27 
        53.4665     4.15295e-27 
        53.4963     4.35645e-27 
         53.526     4.56995e-27 
        53.5557     4.79389e-27 
        53.5855     5.02882e-27 
        53.6153     5.27525e-27 
         53.645     5.53376e-27 
        53.6749     5.80493e-27 
        53.7047      6.0894e-27 
        53.7345     6.38782e-27 
        53.7644     6.70084e-27 
        53.7942     7.02924e-27 
        53.8242     7.37368e-27 
         53.854     7.73503e-27 
        53.8839     8.11409e-27 
        53.9139     8.51172e-27 
        53.9439     8.92882e-27 
        53.9739     9.36637e-27 
        54.0038     9.82538e-27 
        54.0339     1.03068e-26 
        54.0639     1.08119e-26 
         54.094     1.13418e-26 
         54.124     1.18975e-26 
         54.154     1.24806e-26 
        54.1842     1.30922e-26 
        54.2143     1.37338e-26 
        54.2444     1.44068e-26 
        54.2745     1.51128e-26 
        54.3047     1.58533e-26 
        54.3349     1.66303e-26 
        54.3651     1.74452e-26 
        54.3953     1.83002e-26 
        54.4255      1.9197e-26 
        54.4557     2.01376e-26 
         54.486     2.11245e-26 
        54.5163     2.21597e-26 
        54.5466     2.32455e-26 
        54.5769     2.43847e-26 
        54.6072     2.55797e-26 
        54.6376     2.68332e-26 
        54.6679     2.81482e-26 
        54.6984     2.95275e-26 
        54.7287     3.09745e-26 
        54.7591     3.24924e-26 
        54.7895     3.40848e-26 
          54.82      3.5755e-26 
        54.8505     3.75072e-26 
         54.881      3.9345e-26 
        54.9115     4.12732e-26 
         54.942     4.32958e-26 
        54.9725     4.54175e-26 
         55.003     4.76432e-26 
        55.0336     4.99778e-26 
        55.0642     5.24271e-26 
        55.0948     5.49961e-26 
        55.1254     5.76911e-26 
        55.1561     6.05184e-26 
        55.1867      6.3484e-26 
        55.2174     6.65948e-26 
         55.248     6.98243e-26 
        55.2788      7.3092e-26 
        55.3095     7.65148e-26 
        55.3402     8.00977e-26 
         55.371     8.38485e-26 
        55.4017     8.77751e-26 
        55.4325     9.18852e-26 
        55.4633      9.6188e-26 
        55.4941     1.00692e-25 
         55.525     1.05407e-25 
        55.5558     1.10343e-25 
        55.5867      1.1551e-25 
        55.6176     1.20919e-25 
        55.6485     1.26581e-25 
        55.6794     1.32509e-25 
        55.7104     1.38714e-25 
        55.7413     1.45209e-25 
        55.7723     1.52008e-25 
        55.8033     1.59128e-25 
        55.8343     1.66578e-25 
        55.8653     1.74379e-25 
        55.8964     1.82545e-25 
        55.9275     1.91093e-25 
        55.9586     2.00041e-25 
        55.9896     2.09408e-25 
        56.0208     2.19214e-25 
        56.0519      2.2948e-25 
         56.083     2.40225e-25 
        56.1142     2.51474e-25 
        56.1453     2.63251e-25 
        56.1766     2.75578e-25 
        56.2077     2.88482e-25 
        56.2391     3.01991e-25 
        56.2703     3.16132e-25 
        56.3016     3.30935e-25 
        56.3328     3.46432e-25 
        56.3642     3.62655e-25 
        56.3954     3.79638e-25 
        56.4268     3.97414e-25 
        56.4582     4.16024e-25 
        56.4896     4.35505e-25 
        56.5209     4.55899e-25 
        56.5523     4.77247e-25 
        56.5837     4.99595e-25 
        56.6152     5.22989e-25 
        56.6467     5.47479e-25 
        56.6782     5.73115e-25 
        56.7096     5.99955e-25 
        56.7412     6.28048e-25 
        56.7726     6.57459e-25 
        56.8043     6.88244e-25 
        56.8358     7.20472e-25 
        56.8674      7.5421e-25 
         56.899     7.89527e-25 
        56.9306     8.26499e-25 
        56.9623     8.65201e-25 
        56.9939     9.05716e-25 
        57.0256     9.48129e-25 
        57.0572     9.92527e-25 
         57.089       1.039e-24 
        57.1207     1.08765e-24 
        57.1524     1.13859e-24 
        57.1841     1.19191e-24 
         57.216     1.24772e-24 
        57.2478     1.30614e-24 
        57.2795     1.36731e-24 
        57.3114     1.43134e-24 
        57.3433     1.49836e-24 
        57.3751     1.56852e-24 
         57.407     1.64198e-24 
        57.4389     1.71886e-24 
        57.4708     1.79935e-24 
        57.5028     1.88361e-24 
        57.5347     1.97182e-24 
        57.5667     2.06415e-24 
        57.5987     2.16081e-24 
        57.6307       2.262e-24 
        57.6627     2.36791e-24 
        57.6948      2.4788e-24 
        57.7268     2.59488e-24 
        57.7589     2.71638e-24 
         57.791     2.84358e-24 
        57.8231     2.97674e-24 
        57.8552     3.11614e-24 
        57.8874     3.26205e-24 
        57.9196     3.41339e-24 
        57.9517     3.56591e-24 
        57.9839     3.72519e-24 
        58.0162     3.89156e-24 
        58.0485     4.06538e-24 
        58.0806     4.24697e-24 
        58.1129     4.43667e-24 
        58.1453     4.63482e-24 
        58.1776     4.84184e-24 
        58.2099     5.05811e-24 
        58.2422     5.28403e-24 
        58.2746     5.52004e-24 
         58.307     5.76659e-24 
        58.3393     6.02417e-24 
        58.3718     6.29323e-24 
        58.4042     6.57432e-24 
        58.4367     6.86797e-24 
        58.4692     7.17472e-24 
        58.5017     7.49518e-24 
        58.5341     7.82998e-24 
        58.5667     8.17968e-24 
        58.5992     8.54505e-24 
        58.6318     8.92672e-24 
        58.6644     9.32543e-24 
         58.697     9.74194e-24 
        58.7296     1.01771e-23 
        58.7622     1.06316e-23 
        58.7949     1.11065e-23 
        58.8276     1.16025e-23 
        58.8603     1.21208e-23 
         58.893     1.26622e-23 
        58.9256     1.32278e-23 
        58.9584     1.38185e-23 
        58.9912     1.44358e-23 
         59.024     1.50805e-23 
        59.0568     1.57541e-23 
        59.0896     1.64578e-23 
        59.1224     1.71929e-23 
        59.1553     1.79608e-23 
        59.1882      1.8763e-23 
        59.2211      1.9601e-23 
         59.254     2.04766e-23 
        59.2869     2.13912e-23 
        59.3199     2.23466e-23 
        59.3529     2.33447e-23 
        59.3858     2.43874e-23 
        59.4187     2.54767e-23 
        59.4518     2.66146e-23 
        59.4849     2.78034e-23 
        59.5179     2.90452e-23 
        59.5509     3.03426e-23 
        59.5841     3.16978e-23 
        59.6171     3.31137e-23 
        59.6503     3.45926e-23 
        59.6835     3.61377e-23 
        59.7166     3.77518e-23 
        59.7498      3.9438e-23 
         59.783     4.11995e-23 
        59.8162     4.30397e-23 
        59.8494     4.49622e-23 
        59.8827     4.69705e-23 
        59.9161     4.90682e-23 
        59.9493       5.126e-23 
        59.9826     5.35496e-23 
         60.016     5.59412e-23 
        60.0493       5.844e-23 
        60.0826     6.10502e-23 
        60.1161     6.37769e-23 
        60.1495     6.66255e-23 
        60.1829     6.96015e-23 
        60.2163     7.27103e-23 
        60.2499     7.59577e-23 
        60.2833     7.93505e-23 
        60.3168     8.28948e-23 
        60.3503     8.65973e-23 
        60.3838     9.04652e-23 
        60.4174     9.45057e-23 
        60.4509     9.87271e-23 
        60.4846     1.03137e-22 
        60.5182     1.07743e-22 
        60.5518     1.12556e-22 
        60.5854     1.17583e-22 
        60.6191     1.22835e-22 
        60.6528     1.28321e-22 
        60.6865     1.34053e-22 
        60.7203      1.4004e-22 
         60.754     1.46295e-22 
        60.7878     1.52829e-22 
        60.8215     1.59656e-22 
        60.8554      1.6677e-22 
        60.8891     1.73909e-22 
         60.923     1.81305e-22 
        60.9568     1.89015e-22 
        60.9907     1.97054e-22 
        61.0246     2.05434e-22 
        61.0585      2.1417e-22 
        61.0925     2.23278e-22 
        61.1264     2.32774e-22 
        61.1604     2.42673e-22 
        61.1944     2.52993e-22 
        61.2284     2.63753e-22 
        61.2624     2.74969e-22 
        61.2965     2.86662e-22 
        61.3305     2.98854e-22 
        61.3646     3.11563e-22 
        61.3987     3.24813e-22 
        61.4328     3.38628e-22 
        61.4669     3.53028e-22 
        61.5011     3.68041e-22 
        61.5353     3.83693e-22 
        61.5694     4.00011e-22 
        61.6037     4.17021e-22 
        61.6379     4.34757e-22 
        61.6721     4.53245e-22 
        61.7064     4.72521e-22 
        61.7407     4.92616e-22 
         61.775     5.13564e-22 
        61.8093     5.35406e-22 
        61.8437     5.58174e-22 
        61.8781     5.81912e-22 
        61.9124     6.06659e-22 
        61.9469     6.32459e-22 
        61.9813     6.59355e-22 
        62.0157     6.87397e-22 
        62.0502     7.16628e-22 
        62.0846     7.47105e-22 
        62.1191     7.78878e-22 
        62.1536     8.12002e-22 
        62.1882     8.46533e-22 
        62.2228     8.82534e-22 
        62.2574     9.20063e-22 
        62.2919     9.59193e-22 
        62.3265     9.99986e-22 
        62.3613     1.04251e-21 
        62.3959     1.08684e-21 
        62.4305     1.13307e-21 
        62.4652     1.18126e-21 
