# TLUSTY OSTAR2002+BSTAR2006
# teff = 35000 K (value for the effective temperature for the model. Temperatures are given in K)
# logg = 4.25 log(cm/s2) (value for Log(G) for the model.)
# z = 0.5  (Z/Z0)
#
# column 1: WAVELENGTH (ANGSTROM), Wavelength in Angstrom
# column 2: FLUX (ERG/CM2/S/A), Flux in erg/cm2/s/A
        44.8829     3.20052e-36 
        44.9078     3.34198e-36 
        44.9328     3.54187e-36 
        44.9578     3.75367e-36 
        44.9827     3.97818e-36 
        45.0077     4.21611e-36 
        45.0327     4.46825e-36 
        45.0578     4.73547e-36 
        45.0828     5.01869e-36 
        45.1079     5.31883e-36 
        45.1329     5.63693e-36 
         45.158     5.97406e-36 
        45.1831     6.33136e-36 
        45.2082     6.71001e-36 
        45.2333     7.11131e-36 
        45.2585     7.53662e-36 
        45.2836     7.98736e-36 
        45.3088     8.46504e-36 
        45.3339     8.97132e-36 
        45.3592     9.50783e-36 
        45.3844     1.00765e-35 
        45.4096     1.06791e-35 
        45.4348     1.13178e-35 
        45.4601     1.19947e-35 
        45.4853      1.2712e-35 
        45.5106     1.34723e-35 
        45.5359      1.4278e-35 
        45.5612     1.51319e-35 
        45.5865     1.60369e-35 
        45.6118     1.69961e-35 
        45.6372     1.80125e-35 
        45.6626     1.90898e-35 
         45.688     2.02315e-35 
        45.7133     2.14415e-35 
        45.7388     2.27237e-35 
        45.7642     2.40828e-35 
        45.7896     2.55231e-35 
         45.815     2.70495e-35 
        45.8405     2.86673e-35 
         45.866     3.03818e-35 
        45.8915     3.21988e-35 
         45.917     3.41244e-35 
        45.9425     3.61654e-35 
         45.968     3.83282e-35 
        45.9936     4.06204e-35 
        46.0191       4.305e-35 
        46.0447     4.56245e-35 
        46.0702     4.83532e-35 
        46.0959     5.12451e-35 
        46.1215     5.43098e-35 
        46.1471      5.7558e-35 
        46.1728     6.10001e-35 
        46.1984     6.46484e-35 
        46.2241     6.85147e-35 
        46.2498     7.26124e-35 
        46.2755     7.69551e-35 
        46.3012     8.15575e-35 
        46.3269     8.64353e-35 
        46.3527     9.16046e-35 
        46.3784     9.70832e-35 
        46.4042     1.02889e-34 
          46.43     1.09043e-34 
        46.4558     1.15564e-34 
        46.4816     1.22476e-34 
        46.5074     1.29801e-34 
        46.5333     1.37564e-34 
        46.5591     1.45791e-34 
         46.585      1.5451e-34 
        46.6109      1.6375e-34 
        46.6368     1.73468e-34 
        46.6627     1.83411e-34 
        46.6886     1.93929e-34 
        46.7146     2.05052e-34 
        46.7405     2.16811e-34 
        46.7665     2.29247e-34 
        46.7925     2.42394e-34 
        46.8185     2.56295e-34 
        46.8445     2.70992e-34 
        46.8705     2.86535e-34 
        46.8966     3.02969e-34 
        46.9226     3.20343e-34 
        46.9487     3.38715e-34 
        46.9748     3.58141e-34 
        47.0009      3.7868e-34 
        47.0271     4.00397e-34 
        47.0532     4.23361e-34 
        47.0794      4.4764e-34 
        47.1055     4.73314e-34 
        47.1317     5.00458e-34 
        47.1579     5.29161e-34 
        47.1841     5.59507e-34 
        47.2103     5.91596e-34 
        47.2366     6.25523e-34 
        47.2628     6.61399e-34 
         47.289     6.99331e-34 
        47.3154     7.39435e-34 
        47.3416     7.81844e-34 
        47.3679     8.26684e-34 
        47.3943     8.74093e-34 
        47.4206     9.24223e-34 
        47.4469     9.77228e-34 
        47.4733     1.03327e-33 
        47.4997     1.09253e-33 
        47.5261     1.15519e-33 
        47.5525     1.22144e-33 
        47.5789     1.29149e-33 
        47.6054     1.36556e-33 
        47.6318     1.44387e-33 
        47.6583     1.52668e-33 
        47.6847     1.61424e-33 
        47.7113     1.70681e-33 
        47.7378      1.8047e-33 
        47.7643      1.9082e-33 
        47.7908     2.01763e-33 
        47.8174     2.13335e-33 
         47.844     2.25569e-33 
        47.8706     2.38507e-33 
        47.8971     2.52186e-33 
        47.9238     2.66649e-33 
        47.9505     2.81941e-33 
        47.9771     2.98109e-33 
        48.0037     3.15206e-33 
        48.0304     3.33283e-33 
        48.0571     3.52399e-33 
        48.0838     3.72607e-33 
        48.1105     3.93978e-33 
        48.1372     4.16573e-33 
         48.164     4.40464e-33 
        48.1908     4.65724e-33 
        48.2175     4.92435e-33 
        48.2444     5.20675e-33 
        48.2712     5.50535e-33 
         48.298     5.82109e-33 
        48.3248     6.15494e-33 
        48.3517     6.50793e-33 
        48.3785     6.88118e-33 
        48.4054     7.27582e-33 
        48.4323     7.69309e-33 
        48.4592     8.13428e-33 
        48.4862     8.60078e-33 
        48.5131     9.09495e-33 
          48.54     9.60062e-33 
         48.567     1.01276e-32 
         48.594     1.06834e-32 
         48.621     1.12698e-32 
         48.648     1.18884e-32 
        48.6751     1.25409e-32 
        48.7022     1.32292e-32 
        48.7292     1.39553e-32 
        48.7563     1.47213e-32 
        48.7834     1.55293e-32 
        48.8105     1.63816e-32 
        48.8376     1.72808e-32 
        48.8647     1.82292e-32 
        48.8919     1.92297e-32 
         48.919     2.02852e-32 
        48.9463     2.13986e-32 
        48.9735     2.25732e-32 
        49.0007     2.38121e-32 
        49.0279     2.51191e-32 
        49.0551     2.64977e-32 
        49.0824     2.79521e-32 
        49.1097     2.94863e-32 
         49.137     3.11047e-32 
        49.1643      3.2812e-32 
        49.1916     3.46129e-32 
        49.2189     3.65127e-32 
        49.2463     3.85168e-32 
        49.2737     4.06307e-32 
         49.301     4.28609e-32 
        49.3284     4.52135e-32 
        49.3559      4.7695e-32 
        49.3833     5.03129e-32 
        49.4107     5.30744e-32 
        49.4382     5.59874e-32 
        49.4656     5.90604e-32 
        49.4932     6.23019e-32 
        49.5206     6.57216e-32 
        49.5481     6.93289e-32 
        49.5757     7.31342e-32 
        49.6032     7.71482e-32 
        49.6308     8.13825e-32 
        49.6584     8.58494e-32 
         49.686     9.05612e-32 
        49.7136     9.55318e-32 
        49.7412     1.00775e-31 
        49.7688     1.06307e-31 
        49.7965     1.12141e-31 
        49.8242     1.18297e-31 
        49.8519     1.24789e-31 
        49.8796     1.31638e-31 
        49.9073     1.38864e-31 
         49.935     1.46486e-31 
        49.9627     1.54525e-31 
        49.9906     1.63006e-31 
        50.0183     1.71954e-31 
        50.0462     1.81392e-31 
        50.0739     1.91348e-31 
        50.1018     2.01851e-31 
        50.1296     2.12929e-31 
        50.1574     2.24617e-31 
        50.1853     2.36946e-31 
        50.2132     2.49951e-31 
        50.2412     2.63669e-31 
         50.269     2.78141e-31 
         50.297     2.93407e-31 
        50.3249     3.09511e-31 
        50.3529       3.265e-31 
        50.3809      3.4442e-31 
        50.4088     3.63325e-31 
        50.4369     3.83265e-31 
        50.4649     4.04301e-31 
         50.493     4.26493e-31 
         50.521     4.49902e-31 
        50.5491     4.74596e-31 
        50.5771     5.00435e-31 
        50.6053     5.26673e-31 
        50.6334     5.54284e-31 
        50.6616      5.8334e-31 
        50.6897     6.13922e-31 
        50.7179     6.46104e-31 
        50.7461     6.79975e-31 
        50.7742     7.15623e-31 
        50.8025     7.53138e-31 
        50.8307     7.92618e-31 
        50.8589     8.34172e-31 
        50.8872       8.779e-31 
        50.9155     9.23922e-31 
        50.9438     9.72357e-31 
        50.9721     1.02333e-30 
        51.0004     1.07698e-30 
        51.0288     1.13344e-30 
        51.0571     1.19285e-30 
        51.0855     1.25539e-30 
        51.1139      1.3212e-30 
        51.1423     1.39046e-30 
        51.1707     1.46334e-30 
        51.1991     1.54006e-30 
        51.2276      1.6208e-30 
         51.256     1.70577e-30 
        51.2845     1.79519e-30 
        51.3131      1.8893e-30 
        51.3415     1.98835e-30 
          51.37     2.09258e-30 
        51.3987     2.20227e-30 
        51.4272     2.31772e-30 
        51.4557     2.43923e-30 
        51.4844      2.5671e-30 
        51.5129     2.70168e-30 
        51.5416      2.8433e-30 
        51.5703     2.99236e-30 
        51.5989     3.14924e-30 
        51.6276     3.31433e-30 
        51.6563     3.48807e-30 
         51.685     3.67092e-30 
        51.7137     3.86337e-30 
        51.7424      4.0659e-30 
        51.7712     4.27904e-30 
           51.8     4.50336e-30 
        51.8287     4.73945e-30 
        51.8575      4.9879e-30 
        51.8863     5.24939e-30 
        51.9152     5.52457e-30 
         51.944     5.81418e-30 
        51.9729     6.11899e-30 
        52.0018     6.43975e-30 
        52.0307     6.77734e-30 
        52.0596     7.13263e-30 
        52.0885     7.50654e-30 
        52.1175     7.90005e-30 
        52.1464     8.31421e-30 
        52.1754     8.75008e-30 
        52.2044     9.20879e-30 
        52.2334     9.69154e-30 
        52.2624     1.01996e-29 
        52.2915     1.07343e-29 
        52.3205      1.1297e-29 
        52.3496     1.18892e-29 
        52.3787     1.25125e-29 
        52.4078     1.31685e-29 
        52.4369     1.38588e-29 
        52.4661     1.45853e-29 
        52.4952     1.53499e-29 
        52.5244     1.61546e-29 
        52.5536     1.70015e-29 
        52.5828     1.78928e-29 
        52.6121     1.88307e-29 
        52.6413     1.98179e-29 
        52.6705     2.08568e-29 
        52.6997     2.19502e-29 
         52.729      2.3101e-29 
        52.7583     2.43119e-29 
        52.7877     2.55863e-29 
         52.817     2.69012e-29 
        52.8463     2.82425e-29 
        52.8758     2.96536e-29 
        52.9051     3.11354e-29 
        52.9345     3.26911e-29 
         52.964     3.43244e-29 
        52.9934     3.60395e-29 
        53.0228     3.78403e-29 
        53.0523     3.97311e-29 
        53.0818     4.17162e-29 
        53.1113     4.38005e-29 
        53.1407     4.59892e-29 
        53.1703     4.82869e-29 
        53.1999     5.06997e-29 
        53.2294      5.3233e-29 
         53.259     5.58928e-29 
        53.2886     5.86856e-29 
        53.3182     6.16177e-29 
        53.3478     6.46967e-29 
        53.3775     6.79293e-29 
        53.4071     7.13234e-29 
        53.4368      7.4887e-29 
        53.4665     7.86291e-29 
        53.4963     8.25577e-29 
         53.526     8.66828e-29 
        53.5557     9.10141e-29 
        53.5855     9.55616e-29 
        53.6153     1.00336e-28 
         53.645      1.0535e-28 
        53.6749     1.10614e-28 
        53.7047     1.16141e-28 
        53.7345     1.21944e-28 
        53.7644     1.28037e-28 
        53.7942     1.34435e-28 
        53.8242     1.41152e-28 
         53.854     1.48204e-28 
        53.8839     1.55609e-28 
        53.9139     1.63384e-28 
        53.9439     1.71548e-28 
        53.9739      1.8012e-28 
        54.0038      1.8912e-28 
        54.0339     1.98569e-28 
        54.0639     2.08491e-28 
         54.094     2.18908e-28 
         54.124     2.29845e-28 
         54.154     2.41331e-28 
        54.1842     2.53388e-28 
        54.2143      2.6605e-28 
        54.2444     2.79343e-28 
        54.2745     2.93302e-28 
        54.3047     3.07955e-28 
        54.3349     3.23343e-28 
        54.3651     3.39499e-28 
        54.3953     3.56464e-28 
        54.4255     3.74274e-28 
        54.4557     3.92975e-28 
         54.486      4.1261e-28 
        54.5163     4.33226e-28 
        54.5466     4.54874e-28 
        54.5769     4.77602e-28 
        54.6072     5.01466e-28 
        54.6376     5.26522e-28 
        54.6679     5.52829e-28 
        54.6984     5.80451e-28 
        54.7287     6.09454e-28 
        54.7591     6.39907e-28 
        54.7895     6.71881e-28 
          54.82     7.05452e-28 
        54.8505     7.40699e-28 
         54.881     7.77708e-28 
        54.9115     8.16568e-28 
         54.942      8.5737e-28 
        54.9725     9.00209e-28 
         55.003     9.45188e-28 
        55.0336     9.92415e-28 
        55.0642       1.042e-27 
        55.0948     1.09407e-27 
        55.1254     1.14873e-27 
        55.1561     1.20613e-27 
        55.1867     1.26639e-27 
        55.2174     1.32967e-27 
         55.248     1.39534e-27 
        55.2788     1.46163e-27 
        55.3095      1.5311e-27 
        55.3402     1.60387e-27 
         55.371      1.6801e-27 
        55.4017     1.75996e-27 
        55.4325     1.84361e-27 
        55.4633     1.93123e-27 
        55.4941     2.02303e-27 
         55.525     2.11918e-27 
        55.5558      2.2199e-27 
        55.5867      2.3254e-27 
        55.6176     2.43594e-27 
        55.6485     2.55171e-27 
        55.6794       2.673e-27 
        55.7104     2.80004e-27 
        55.7413     2.93313e-27 
        55.7723     3.07253e-27 
        55.8033     3.21857e-27 
        55.8343     3.37154e-27 
        55.8653      3.5318e-27 
        55.8964     3.69966e-27 
        55.9275     3.87551e-27 
        55.9586      4.0597e-27 
        55.9896     4.25266e-27 
        56.0208     4.45478e-27 
        56.0519     4.66651e-27 
         56.083     4.88832e-27 
        56.1142     5.12065e-27 
        56.1453     5.36405e-27 
        56.1766     5.61898e-27 
        56.2077     5.88606e-27 
        56.2391      6.1658e-27 
        56.2703     6.45887e-27 
        56.3016     6.76586e-27 
        56.3328     7.08745e-27 
        56.3642     7.42431e-27 
        56.3954     7.77719e-27 
        56.4268     8.14681e-27 
        56.4582     8.53403e-27 
        56.4896     8.93964e-27 
        56.5209     9.36456e-27 
        56.5523     9.80964e-27 
        56.5837     1.02759e-26 
        56.6152     1.07643e-26 
        56.6467     1.12759e-26 
        56.6782     1.18119e-26 
        56.7096     1.23733e-26 
        56.7412     1.29614e-26 
        56.7726     1.35774e-26 
        56.8043     1.42228e-26 
        56.8358     1.48988e-26 
        56.8674     1.56068e-26 
         56.899     1.63486e-26 
        56.9306     1.71257e-26 
        56.9623     1.79397e-26 
        56.9939     1.87923e-26 
        57.0256     1.96855e-26 
        57.0572     2.06212e-26 
         57.089     2.16013e-26 
        57.1207      2.2628e-26 
        57.1524     2.37035e-26 
        57.1841     2.48301e-26 
         57.216     2.60102e-26 
        57.2478     2.72465e-26 
        57.2795     2.85416e-26 
        57.3114     2.98981e-26 
        57.3433     3.13191e-26 
        57.3751     3.28077e-26 
         57.407      3.4367e-26 
        57.4389     3.60005e-26 
        57.4708     3.77115e-26 
        57.5028      3.9504e-26 
        57.5347     4.13817e-26 
        57.5667     4.33484e-26 
        57.5987     4.54088e-26 
        57.6307      4.7567e-26 
        57.6627     4.98278e-26 
        57.6948     5.21961e-26 
        57.7268     5.46771e-26 
        57.7589     5.72758e-26 
         57.791      5.9998e-26 
        57.8231     6.28497e-26 
        57.8552      6.5837e-26 
        57.8874     6.89662e-26 
        57.9196     7.22103e-26 
        57.9517     7.54705e-26 
        57.9839     7.88759e-26 
        58.0162     8.24346e-26 
        58.0485     8.61541e-26 
        58.0806     9.00418e-26 
        58.1129     9.41044e-26 
        58.1453     9.83503e-26 
        58.1776     1.02788e-25 
        58.2099     1.07426e-25 
        58.2422     1.12273e-25 
        58.2746     1.17339e-25 
         58.307     1.22633e-25 
        58.3393     1.28167e-25 
        58.3718     1.33949e-25 
        58.4042     1.39993e-25 
        58.4367      1.4631e-25 
        58.4692     1.52912e-25 
        58.5017     1.59811e-25 
        58.5341     1.67023e-25 
        58.5667     1.74558e-25 
        58.5992     1.82435e-25 
        58.6318     1.90666e-25 
        58.6644      1.9927e-25 
         58.697     2.08261e-25 
        58.7296     2.17657e-25 
        58.7622     2.27479e-25 
        58.7949     2.37742e-25 
        58.8276      2.4847e-25 
        58.8603     2.59681e-25 
         58.893     2.71398e-25 
        58.9256     2.83644e-25 
        58.9584     2.96442e-25 
        58.9912     3.09818e-25 
         59.024     3.23797e-25 
        59.0568     3.38406e-25 
        59.0896     3.53675e-25 
        59.1224     3.69635e-25 
        59.1553     3.86313e-25 
        59.1882     4.03743e-25 
        59.2211      4.2196e-25 
         59.254        4.41e-25 
        59.2869     4.60898e-25 
        59.3199     4.81694e-25 
        59.3529     5.03428e-25 
        59.3858     5.26144e-25 
        59.4187     5.49885e-25 
        59.4518     5.74694e-25 
        59.4849     6.00625e-25 
        59.5179     6.27726e-25 
        59.5509     6.56051e-25 
        59.5841     6.85652e-25 
        59.6171     7.16591e-25 
        59.6503     7.48922e-25 
        59.6835     7.82715e-25 
        59.7166     8.18031e-25 
        59.7498      8.5494e-25 
         59.783     8.93518e-25 
        59.8162     9.33833e-25 
        59.8494      9.7597e-25 
        59.8827     1.02001e-24 
        59.9161     1.06603e-24 
        59.9493     1.11413e-24 
        59.9826     1.16441e-24 
         60.016     1.21693e-24 
        60.0493     1.27184e-24 
        60.0826     1.32924e-24 
        60.1161     1.38921e-24 
        60.1495     1.45189e-24 
        60.1829     1.51741e-24 
        60.2163     1.58587e-24 
        60.2499     1.65743e-24 
        60.2833     1.73221e-24 
        60.3168     1.81037e-24 
        60.3503     1.89205e-24 
        60.3838     1.97743e-24 
        60.4174     2.06664e-24 
        60.4509      2.1599e-24 
        60.4846     2.25735e-24 
        60.5182     2.35921e-24 
        60.5518     2.46566e-24 
        60.5854     2.57691e-24 
        60.6191     2.69319e-24 
        60.6528      2.8147e-24 
        60.6865     2.94171e-24 
        60.7203     3.07443e-24 
         60.754     3.21316e-24 
        60.7878     3.35814e-24 
        60.8215     3.50966e-24 
        60.8554     3.66758e-24 
        60.8891     3.82557e-24 
         60.923     3.98913e-24 
        60.9568     4.15969e-24 
        60.9907     4.33754e-24 
        61.0246     4.52299e-24 
        61.0585     4.71638e-24 
        61.0925     4.91801e-24 
        61.1264      5.1283e-24 
        61.1604     5.34755e-24 
        61.1944     5.57619e-24 
        61.2284      5.8146e-24 
        61.2624      6.0632e-24 
        61.2965     6.32243e-24 
        61.3305     6.59277e-24 
        61.3646     6.87462e-24 
        61.3987     7.16856e-24 
        61.4328     7.47507e-24 
        61.4669     7.79466e-24 
        61.5011     8.12792e-24 
        61.5353     8.47542e-24 
        61.5694     8.83781e-24 
        61.6037     9.21565e-24 
        61.6379     9.60969e-24 
        61.6721     1.00206e-23 
        61.7064      1.0449e-23 
        61.7407     1.08957e-23 
         61.775     1.13616e-23 
        61.8093     1.18474e-23 
        61.8437     1.23539e-23 
        61.8781     1.28821e-23 
        61.9124     1.34328e-23 
        61.9469     1.40071e-23 
        61.9813      1.4606e-23 
        62.0157     1.52306e-23 
        62.0502     1.58817e-23 
        62.0846     1.65608e-23 
        62.1191     1.72689e-23 
        62.1536     1.80071e-23 
        62.1882      1.8777e-23 
        62.2228     1.95799e-23 
        62.2574      2.0417e-23 
        62.2919     2.12899e-23 
        62.3265     2.22002e-23 
        62.3613     2.31493e-23 
        62.3959     2.41391e-23 
        62.4305     2.51712e-23 
        62.4652     2.62474e-23 
