# TLUSTY OSTAR2002+BSTAR2006
# teff = 35000 K (value for the effective temperature for the model. Temperatures are given in K)
# logg = 4.75 log(cm/s2) (value for Log(G) for the model.)
# z = 0.5  (Z/Z0)
#
# column 1: WAVELENGTH (ANGSTROM), Wavelength in Angstrom
# column 2: FLUX (ERG/CM2/S/A), Flux in erg/cm2/s/A
        44.8829     2.07707e-36 
        44.9078     2.17128e-36 
        44.9328     2.30454e-36 
        44.9578     2.44599e-36 
        44.9827     2.59611e-36 
        45.0077     2.75544e-36 
        45.0327     2.92455e-36 
        45.0578     3.10404e-36 
        45.0828     3.29455e-36 
        45.1079     3.49676e-36 
        45.1329     3.71137e-36 
         45.158     3.93915e-36 
        45.1831     4.18094e-36 
        45.2082     4.43752e-36 
        45.2333     4.70989e-36 
        45.2585     4.99895e-36 
        45.2836     5.30575e-36 
        45.3088     5.63139e-36 
        45.3339     5.97703e-36 
        45.3592     6.34385e-36 
        45.3844     6.73321e-36 
        45.4096     7.14645e-36 
        45.4348     7.58508e-36 
        45.4601     8.05061e-36 
        45.4853     8.54472e-36 
        45.5106     9.06915e-36 
        45.5359     9.62577e-36 
        45.5612     1.02165e-35 
        45.5865     1.08436e-35 
        45.6118     1.15091e-35 
        45.6372     1.22155e-35 
        45.6626     1.29652e-35 
         45.688     1.37609e-35 
        45.7133     1.46055e-35 
        45.7388     1.55019e-35 
        45.7642     1.64533e-35 
        45.7896     1.74632e-35 
         45.815      1.8535e-35 
        45.8405     1.96726e-35 
         45.866     2.08799e-35 
        45.8915     2.21615e-35 
         45.917     2.35217e-35 
        45.9425     2.49653e-35 
         45.968     2.64975e-35 
        45.9936     2.81238e-35 
        46.0191     2.98499e-35 
        46.0447     3.16818e-35 
        46.0702     3.36263e-35 
        46.0959     3.56901e-35 
        46.1215     3.78807e-35 
        46.1471     4.02057e-35 
        46.1728     4.26733e-35 
        46.1984     4.52924e-35 
        46.2241      4.8072e-35 
        46.2498     5.10224e-35 
        46.2755     5.41541e-35 
        46.3012     5.74778e-35 
        46.3269     6.10055e-35 
        46.3527     6.47495e-35 
        46.3784     6.87235e-35 
        46.4042     7.29416e-35 
          46.43     7.74182e-35 
        46.4558       8.217e-35 
        46.4816     8.72129e-35 
        46.5074     9.25657e-35 
        46.5333     9.82469e-35 
        46.5591     1.04277e-34 
         46.585     1.10677e-34 
        46.6109      1.1747e-34 
        46.6368     1.24626e-34 
        46.6627     1.31963e-34 
        46.6886     1.39737e-34 
        46.7146     1.47969e-34 
        46.7405     1.56687e-34 
        46.7665     1.65918e-34 
        46.7925     1.75693e-34 
        46.8185     1.86044e-34 
        46.8445     1.97003e-34 
        46.8705      2.0861e-34 
        46.8966       2.209e-34 
        46.9226     2.33914e-34 
        46.9487     2.47695e-34 
        46.9748     2.62287e-34 
        47.0009      2.7774e-34 
        47.0271     2.94102e-34 
        47.0532     3.11428e-34 
        47.0794     3.29775e-34 
        47.1055     3.49204e-34 
        47.1317     3.69776e-34 
        47.1579     3.91563e-34 
        47.1841      4.1463e-34 
        47.2103     4.39057e-34 
        47.2366     4.64923e-34 
        47.2628     4.92315e-34 
         47.289     5.21319e-34 
        47.3154      5.5203e-34 
        47.3416     5.84554e-34 
        47.3679     6.18991e-34 
        47.3943     6.55458e-34 
        47.4206     6.94073e-34 
        47.4469     7.34964e-34 
        47.4733     7.78262e-34 
        47.4997     8.24112e-34 
        47.5261     8.72664e-34 
        47.5525     9.24075e-34 
        47.5789     9.78515e-34 
        47.6054     1.03616e-33 
        47.6318     1.09721e-33 
        47.6583     1.16185e-33 
        47.6847      1.2303e-33 
        47.7113     1.30278e-33 
        47.7378     1.37953e-33 
        47.7643      1.4608e-33 
        47.7908     1.54686e-33 
        47.8174       1.638e-33 
         47.844     1.73449e-33 
        47.8706     1.83667e-33 
        47.8971     1.94489e-33 
        47.9238     2.05947e-33 
        47.9505     2.18079e-33 
        47.9771     2.30927e-33 
        48.0037     2.44531e-33 
        48.0304     2.58937e-33 
        48.0571     2.74194e-33 
        48.0838     2.90346e-33 
        48.1105     3.07452e-33 
        48.1372     3.25566e-33 
         48.164     3.44746e-33 
        48.1908     3.65055e-33 
        48.2175     3.86563e-33 
        48.2444     4.09335e-33 
        48.2712     4.33451e-33 
         48.298     4.58986e-33 
        48.3248     4.86028e-33 
        48.3517      5.1466e-33 
        48.3785     5.44983e-33 
        48.4054      5.7709e-33 
        48.4323     6.11088e-33 
        48.4592     6.47089e-33 
        48.4862     6.85209e-33 
        48.5131     7.25655e-33 
          48.54     7.67109e-33 
         48.567     8.10381e-33 
         48.594     8.56091e-33 
         48.621     9.04379e-33 
         48.648     9.55394e-33 
        48.6751     1.00928e-32 
        48.7022     1.06621e-32 
        48.7292     1.12636e-32 
        48.7563     1.18989e-32 
        48.7834     1.25701e-32 
        48.8105     1.32791e-32 
        48.8376     1.40282e-32 
        48.8647     1.48195e-32 
        48.8919     1.56554e-32 
         48.919     1.65385e-32 
        48.9463     1.74713e-32 
        48.9735     1.84569e-32 
        49.0007      1.9498e-32 
        49.0279     2.05978e-32 
        49.0551     2.17596e-32 
        49.0824     2.29871e-32 
        49.1097     2.42837e-32 
         49.137     2.56534e-32 
        49.1643     2.71004e-32 
        49.1916     2.86292e-32 
        49.2189      3.0244e-32 
        49.2463     3.19501e-32 
        49.2737     3.37522e-32 
         49.301     3.56561e-32 
        49.3284     3.76674e-32 
        49.3559      3.9792e-32 
        49.3833     4.20367e-32 
        49.4107     4.44079e-32 
        49.4382     4.69127e-32 
        49.4656     4.95589e-32 
        49.4932     5.23543e-32 
        49.5206     5.53076e-32 
        49.5481     5.84273e-32 
        49.5757      6.1723e-32 
        49.6032     6.52047e-32 
        49.6308     6.88825e-32 
        49.6584     7.27681e-32 
         49.686     7.68726e-32 
        49.7136     8.12089e-32 
        49.7412     8.57895e-32 
        49.7688     9.06289e-32 
        49.7965     9.57408e-32 
        49.8242     1.01141e-31 
        49.8519     1.06846e-31 
        49.8796     1.12873e-31 
        49.9073      1.1924e-31 
         49.935     1.25966e-31 
        49.9627     1.33072e-31 
        49.9906     1.40578e-31 
        50.0183     1.48507e-31 
        50.0462     1.56884e-31 
        50.0739     1.65734e-31 
        50.1018     1.75082e-31 
        50.1296     1.84958e-31 
        50.1574     1.95391e-31 
        50.1853     2.06413e-31 
        50.2132     2.18055e-31 
        50.2412     2.30355e-31 
         50.269     2.43349e-31 
         50.297     2.57076e-31 
        50.3249     2.71576e-31 
        50.3529     2.86896e-31 
        50.3809     3.03078e-31 
        50.4088     3.20174e-31 
        50.4369     3.38233e-31 
        50.4649     3.57313e-31 
         50.493     3.77468e-31 
         50.521     3.98761e-31 
        50.5491     4.21253e-31 
        50.5771     4.44825e-31 
        50.6053     4.68791e-31 
        50.6334     4.94045e-31 
        50.6616      5.2066e-31 
        50.6897      5.4871e-31 
        50.7179     5.78268e-31 
        50.7461     6.09422e-31 
        50.7742     6.42252e-31 
        50.8025     6.76852e-31 
        50.8307     7.13314e-31 
        50.8589     7.51742e-31 
        50.8872     7.92238e-31 
        50.9155     8.34917e-31 
        50.9438     8.79896e-31 
        50.9721     9.27297e-31 
        51.0004     9.77254e-31 
        51.0288      1.0299e-30 
        51.0571     1.08538e-30 
        51.0855     1.14385e-30 
        51.1139     1.20547e-30 
        51.1423     1.27041e-30 
        51.1707     1.33885e-30 
        51.1991     1.41098e-30 
        51.2276     1.48699e-30 
         51.256      1.5671e-30 
        51.2845     1.65152e-30 
        51.3131     1.74048e-30 
        51.3415     1.83425e-30 
          51.37     1.93307e-30 
        51.3987      2.0372e-30 
        51.4272     2.14695e-30 
        51.4557     2.26261e-30 
        51.4844      2.3845e-30 
        51.5129     2.51296e-30 
        51.5416     2.64833e-30 
        51.5703       2.791e-30 
        51.5989     2.94136e-30 
        51.6276     3.09981e-30 
        51.6563      3.2668e-30 
         51.685     3.44279e-30 
        51.7137     3.62826e-30 
        51.7424     3.82372e-30 
        51.7712     4.02972e-30 
           51.8     4.24679e-30 
        51.8287     4.47557e-30 
        51.8575     4.71669e-30 
        51.8863     4.97078e-30 
        51.9152     5.23857e-30 
         51.944     5.52078e-30 
        51.9729      5.8182e-30 
        52.0018     6.13161e-30 
        52.0307     6.46194e-30 
        52.0596     6.81006e-30 
        52.0885     7.17691e-30 
        52.1175     7.56354e-30 
        52.1464     7.97101e-30 
        52.1754     8.40043e-30 
        52.2044     8.85297e-30 
        52.2334     9.32991e-30 
        52.2624      9.8325e-30 
        52.2915     1.03622e-29 
        52.3205     1.09204e-29 
        52.3496     1.15087e-29 
        52.3787     1.21287e-29 
        52.4078     1.27821e-29 
        52.4369     1.34707e-29 
        52.4661     1.41964e-29 
        52.4952     1.49612e-29 
        52.5244     1.57672e-29 
        52.5536     1.66166e-29 
        52.5828     1.75117e-29 
        52.6121     1.84551e-29 
        52.6413     1.94492e-29 
        52.6705     2.04971e-29 
        52.6997     2.16013e-29 
         52.729     2.27649e-29 
        52.7583     2.39913e-29 
        52.7877     2.52837e-29 
         52.817     2.66186e-29 
        52.8463     2.79817e-29 
        52.8758     2.94174e-29 
        52.9051     3.09272e-29 
        52.9345     3.25141e-29 
         52.964     3.41826e-29 
        52.9934     3.59368e-29 
        53.0228     3.77808e-29 
        53.0523     3.97196e-29 
        53.0818     4.17579e-29 
        53.1113     4.39005e-29 
        53.1407     4.61535e-29 
        53.1703     4.85217e-29 
        53.1999     5.10117e-29 
        53.2294     5.36293e-29 
         53.259     5.63814e-29 
        53.2886     5.92747e-29 
        53.3182     6.23164e-29 
        53.3478     6.55142e-29 
        53.3775     6.88761e-29 
        53.4071     7.24105e-29 
        53.4368     7.61263e-29 
        53.4665     8.00329e-29 
        53.4963     8.41397e-29 
         53.526     8.84574e-29 
        53.5557     9.29966e-29 
        53.5855     9.77688e-29 
        53.6153     1.02786e-28 
         53.645      1.0806e-28 
        53.6749     1.13605e-28 
        53.7047     1.19435e-28 
        53.7345     1.25564e-28 
        53.7644     1.32008e-28 
        53.7942     1.38782e-28 
        53.8242     1.45903e-28 
         53.854     1.53391e-28 
        53.8839     1.61261e-28 
        53.9139     1.69537e-28 
        53.9439     1.78237e-28 
        53.9739     1.87384e-28 
        54.0038     1.96998e-28 
        54.0339     2.07108e-28 
        54.0639     2.17736e-28 
         54.094     2.28909e-28 
         54.124     2.40656e-28 
         54.154     2.53005e-28 
        54.1842     2.65988e-28 
        54.2143     2.79638e-28 
        54.2444     2.93987e-28 
        54.2745     3.09073e-28 
        54.3047     3.24933e-28 
        54.3349     3.41607e-28 
        54.3651     3.59137e-28 
        54.3953     3.77567e-28 
        54.4255     3.96943e-28 
        54.4557     4.17311e-28 
         54.486     4.38726e-28 
        54.5163     4.61239e-28 
        54.5466     4.84907e-28 
        54.5769     5.09791e-28 
        54.6072     5.35952e-28 
        54.6376     5.63454e-28 
        54.6679     5.92368e-28 
        54.6984     6.22764e-28 
        54.7287     6.54724e-28 
        54.7591     6.88321e-28 
        54.7895     7.23643e-28 
          54.82     7.60777e-28 
        54.8505     7.99816e-28 
         54.881     8.40857e-28 
        54.9115     8.84008e-28 
         54.942     9.29372e-28 
        54.9725     9.77064e-28 
         55.003      1.0272e-27 
        55.0336     1.07991e-27 
        55.0642     1.13533e-27 
        55.0948     1.19359e-27 
        55.1254     1.25484e-27 
        55.1561     1.31923e-27 
        55.1867     1.38692e-27 
        55.2174      1.4581e-27 
         55.248     1.53203e-27 
        55.2788     1.60669e-27 
        55.3095     1.68501e-27 
        55.3402     1.76716e-27 
         55.371     1.85331e-27 
        55.4017     1.94368e-27 
        55.4325     2.03842e-27 
        55.4633     2.13781e-27 
        55.4941     2.24204e-27 
         55.525     2.35133e-27 
        55.5558     2.46597e-27 
        55.5867     2.58619e-27 
        55.6176     2.71226e-27 
        55.6485     2.84449e-27 
        55.6794     2.98317e-27 
        55.7104     3.12862e-27 
        55.7413     3.28114e-27 
        55.7723      3.4411e-27 
        55.8033     3.60886e-27 
        55.8343      3.7848e-27 
        55.8653     3.96932e-27 
        55.8964     4.16283e-27 
        55.9275     4.36578e-27 
        55.9586     4.57862e-27 
        55.9896     4.80185e-27 
        56.0208     5.03593e-27 
        56.0519     5.28145e-27 
         56.083     5.53894e-27 
        56.1142     5.80897e-27 
        56.1453     6.09219e-27 
        56.1766     6.38918e-27 
        56.2077     6.70068e-27 
        56.2391     7.02733e-27 
        56.2703     7.36993e-27 
        56.3016     7.72923e-27 
        56.3328     8.10607e-27 
        56.3642     8.50125e-27 
        56.3954     8.91571e-27 
        56.4268     9.35035e-27 
        56.4582      9.8062e-27 
        56.4896     1.02843e-26 
        56.5209     1.07857e-26 
        56.5523     1.13115e-26 
        56.5837      1.1863e-26 
        56.6152     1.24413e-26 
        56.6467     1.30479e-26 
        56.6782     1.36839e-26 
        56.7096     1.43511e-26 
        56.7412     1.50507e-26 
        56.7726     1.57845e-26 
        56.8043      1.6554e-26 
        56.8358     1.73611e-26 
        56.8674     1.82074e-26 
         56.899     1.90951e-26 
        56.9306      2.0026e-26 
        56.9623     2.10024e-26 
        56.9939     2.20262e-26 
        57.0256     2.31001e-26 
        57.0572     2.42262e-26 
         57.089     2.54074e-26 
        57.1207      2.6646e-26 
        57.1524     2.79451e-26 
        57.1841     2.93075e-26 
         57.216     3.07362e-26 
        57.2478     3.22347e-26 
        57.2795     3.38063e-26 
        57.3114     3.54544e-26 
        57.3433     3.71828e-26 
        57.3751     3.89956e-26 
         57.407     4.08968e-26 
        57.4389     4.28905e-26 
        57.4708     4.49815e-26 
        57.5028     4.71744e-26 
        57.5347     4.94744e-26 
        57.5667     5.18863e-26 
        57.5987     5.44159e-26 
        57.6307     5.70688e-26 
        57.6627      5.9851e-26 
        57.6948     6.27689e-26 
        57.7268     6.58292e-26 
        57.7589     6.90383e-26 
         57.791     7.24042e-26 
        57.8231      7.5934e-26 
        57.8552      7.9636e-26 
        57.8874     8.35183e-26 
        57.9196     8.75465e-26 
        57.9517     9.15929e-26 
        57.9839     9.58237e-26 
        58.0162     1.00249e-25 
        58.0485      1.0488e-25 
        58.0806     1.09725e-25 
        58.1129     1.14792e-25 
        58.1453     1.20095e-25 
        58.1776     1.25642e-25 
        58.2099     1.31446e-25 
        58.2422     1.37517e-25 
        58.2746     1.43869e-25 
         58.307     1.50515e-25 
        58.3393     1.57466e-25 
        58.3718      1.6474e-25 
        58.4042     1.72349e-25 
        58.4367      1.8031e-25 
        58.4692     1.88638e-25 
        58.5017     1.97351e-25 
        58.5341     2.06468e-25 
        58.5667     2.16003e-25 
        58.5992     2.25981e-25 
        58.6318     2.36419e-25 
        58.6644      2.4734e-25 
         58.697     2.58764e-25 
        58.7296     2.70716e-25 
        58.7622     2.83221e-25 
        58.7949     2.96302e-25 
        58.8276     3.09989e-25 
        58.8603     3.24307e-25 
         58.893     3.39287e-25 
        58.9256     3.54959e-25 
        58.9584     3.71354e-25 
        58.9912     3.88507e-25 
         59.024     4.06451e-25 
        59.0568     4.25225e-25 
        59.0896     4.44866e-25 
        59.1224     4.65416e-25 
        59.1553     4.86912e-25 
        59.1882     5.09402e-25 
        59.2211     5.32932e-25 
         59.254     5.57548e-25 
        59.2869     5.83302e-25 
        59.3199     6.10243e-25 
        59.3529     6.38431e-25 
        59.3858     6.67921e-25 
        59.4187     6.98772e-25 
        59.4518     7.31046e-25 
        59.4849     7.64814e-25 
        59.5179     8.00141e-25 
        59.5509     8.37101e-25 
        59.5841     8.75766e-25 
        59.6171     9.16218e-25 
        59.6503     9.58536e-25 
        59.6835     1.00281e-24 
        59.7166     1.04913e-24 
        59.7498     1.09759e-24 
         59.783     1.14829e-24 
        59.8162     1.20133e-24 
        59.8494     1.25681e-24 
        59.8827     1.31487e-24 
        59.9161     1.37559e-24 
        59.9493     1.43915e-24 
        59.9826     1.50562e-24 
         60.016     1.57516e-24 
        60.0493     1.64791e-24 
        60.0826     1.72403e-24 
        60.1161     1.80366e-24 
        60.1495     1.88697e-24 
        60.1829     1.97413e-24 
        60.2163     2.06532e-24 
        60.2499     2.16071e-24 
        60.2833     2.26052e-24 
        60.3168     2.36494e-24 
        60.3503     2.47417e-24 
        60.3838     2.58845e-24 
        60.4174     2.70801e-24 
        60.4509      2.8331e-24 
        60.4846     2.96395e-24 
        60.5182     3.10086e-24 
        60.5518     3.24409e-24 
        60.5854     3.39393e-24 
        60.6191      3.5507e-24 
        60.6528      3.7147e-24 
        60.6865     3.88629e-24 
        60.7203     4.06579e-24 
         60.754     4.25359e-24 
        60.7878     4.45006e-24 
        60.8215     4.65561e-24 
        60.8554     4.87002e-24 
        60.8891     5.08426e-24 
         60.923     5.30614e-24 
        60.9568     5.53771e-24 
        60.9907     5.77939e-24 
        61.0246     6.03162e-24 
        61.0585     6.29485e-24 
        61.0925     6.56956e-24 
        61.1264     6.85629e-24 
        61.1604      7.1555e-24 
        61.1944     7.46779e-24 
        61.2284      7.7937e-24 
        61.2624     8.13383e-24 
        61.2965     8.48881e-24 
        61.3305      8.8593e-24 
        61.3646     9.24593e-24 
        61.3987     9.64946e-24 
        61.4328     1.00705e-23 
        61.4669     1.05101e-23 
        61.5011     1.09688e-23 
        61.5353     1.14475e-23 
        61.5694     1.19471e-23 
        61.6037     1.24685e-23 
        61.6379     1.30126e-23 
        61.6721     1.35805e-23 
        61.7064     1.41732e-23 
        61.7407     1.47917e-23 
         61.775     1.54373e-23 
        61.8093     1.61111e-23 
        61.8437     1.68142e-23 
        61.8781     1.75479e-23 
        61.9124     1.83138e-23 
        61.9469      1.9113e-23 
        61.9813     1.99472e-23 
        62.0157     2.08177e-23 
        62.0502     2.17263e-23 
        62.0846     2.26745e-23 
        62.1191     2.36641e-23 
        62.1536     2.46968e-23 
        62.1882     2.57746e-23 
        62.2228     2.68995e-23 
        62.2574     2.80733e-23 
        62.2919     2.92986e-23 
        62.3265     3.05773e-23 
        62.3613     3.19117e-23 
        62.3959     3.33044e-23 
        62.4305      3.4758e-23 
        62.4652     3.62748e-23 
