# TLUSTY OSTAR2002+BSTAR2006
# teff = 35000 K (value for the effective temperature for the model. Temperatures are given in K)
# logg = 3.25 log(cm/s2) (value for Log(G) for the model.)
# z = 0.5  (Z/Z0)
#
# column 1: WAVELENGTH (ANGSTROM), Wavelength in Angstrom
# column 2: FLUX (ERG/CM2/S/A), Flux in erg/cm2/s/A
        44.8829     5.86563e-32 
        44.9078     6.10429e-32 
        44.9328     6.44035e-32 
        44.9578     6.79491e-32 
        44.9827     7.16899e-32 
        45.0077     7.56367e-32 
        45.0327     7.98007e-32 
        45.0578     8.41939e-32 
        45.0828     8.88292e-32 
        45.1079     9.37194e-32 
        45.1329     9.88789e-32 
         45.158     1.04323e-31 
        45.1831     1.10066e-31 
        45.2082     1.16125e-31 
        45.2333     1.22518e-31 
        45.2585     1.29263e-31 
        45.2836      1.3638e-31 
        45.3088     1.43888e-31 
        45.3339     1.51809e-31 
        45.3592     1.60167e-31 
        45.3844     1.68984e-31 
        45.4096     1.78287e-31 
        45.4348     1.88102e-31 
        45.4601     1.98459e-31 
        45.4853     2.09384e-31 
        45.5106     2.20911e-31 
        45.5359     2.33073e-31 
        45.5612     2.45904e-31 
        45.5865     2.59442e-31 
        45.6118     2.73725e-31 
        45.6372     2.88795e-31 
        45.6626     3.04693e-31 
         45.688     3.21468e-31 
        45.7133     3.39166e-31 
        45.7388     3.57837e-31 
        45.7642     3.77538e-31 
        45.7896     3.98324e-31 
         45.815     4.20251e-31 
        45.8405     4.43389e-31 
         45.866     4.67797e-31 
        45.8915     4.93552e-31 
         45.917     5.20722e-31 
        45.9425     5.49392e-31 
         45.968     5.79635e-31 
        45.9936     6.11546e-31 
        46.0191     6.45214e-31 
        46.0447     6.80734e-31 
        46.0702     7.18212e-31 
        46.0959     7.57751e-31 
        46.1215     7.99468e-31 
        46.1471      8.4348e-31 
        46.1728     8.89917e-31 
        46.1984     9.38912e-31 
        46.2241     9.90598e-31 
        46.2498     1.04514e-30 
        46.2755     1.10267e-30 
        46.3012     1.16338e-30 
        46.3269     1.22743e-30 
        46.3527       1.295e-30 
        46.3784     1.36629e-30 
        46.4042     1.44151e-30 
          46.43     1.52087e-30 
        46.4558      1.6046e-30 
        46.4816     1.69294e-30 
        46.5074     1.78615e-30 
        46.5333     1.88446e-30 
        46.5591     1.98823e-30 
         46.585     2.09768e-30 
        46.6109     2.21315e-30 
        46.6368     2.33423e-30 
        46.6627     2.45822e-30 
        46.6886     2.58889e-30 
        46.7146      2.7265e-30 
        46.7405     2.87143e-30 
        46.7665     3.02407e-30 
        46.7925     3.18482e-30 
        46.8185     3.35411e-30 
        46.8445     3.53239e-30 
        46.8705     3.72016e-30 
        46.8966     3.91791e-30 
        46.9226     4.12618e-30 
        46.9487     4.34551e-30 
        46.9748     4.57649e-30 
        47.0009     4.81976e-30 
        47.0271     5.07593e-30 
        47.0532     5.34575e-30 
        47.0794     5.62991e-30 
        47.1055     5.92918e-30 
        47.1317     6.24435e-30 
        47.1579     6.57628e-30 
        47.1841     6.92583e-30 
        47.2103     7.29397e-30 
        47.2366     7.68169e-30 
        47.2628     8.09001e-30 
         47.289     8.52006e-30 
        47.3154     8.97292e-30 
        47.3416      9.4499e-30 
        47.3679     9.95221e-30 
        47.3943     1.04812e-29 
        47.4206     1.10384e-29 
        47.4469     1.16251e-29 
        47.4733      1.2243e-29 
        47.4997     1.28938e-29 
        47.5261     1.35792e-29 
        47.5525      1.4301e-29 
        47.5789     1.50612e-29 
        47.6054     1.58618e-29 
        47.6318     1.67048e-29 
        47.6583     1.75929e-29 
        47.6847     1.85281e-29 
        47.7113     1.95128e-29 
        47.7378     2.05502e-29 
        47.7643     2.16425e-29 
        47.7908     2.27929e-29 
        47.8174     2.40045e-29 
         47.844     2.52804e-29 
        47.8706     2.66242e-29 
        47.8971     2.80395e-29 
        47.9238     2.95299e-29 
        47.9505     3.10995e-29 
        47.9771     3.27527e-29 
        48.0037     3.44936e-29 
        48.0304     3.63272e-29 
        48.0571     3.82583e-29 
        48.0838     4.02918e-29 
        48.1105     4.24336e-29 
        48.1372     4.46891e-29 
         48.164     4.70646e-29 
        48.1908     4.95663e-29 
        48.2175     5.22012e-29 
        48.2444     5.49758e-29 
        48.2712     5.78981e-29 
         48.298     6.09757e-29 
        48.3248      6.4217e-29 
        48.3517     6.76305e-29 
        48.3785     7.12254e-29 
        48.4054     7.50114e-29 
        48.4323     7.89987e-29 
        48.4592     8.31978e-29 
        48.4862     8.76202e-29 
        48.5131     9.22859e-29 
          48.54     9.70677e-29 
         48.567     1.02046e-28 
         48.594      1.0728e-28 
         48.621     1.12782e-28 
         48.648     1.18567e-28 
        48.6751     1.24648e-28 
        48.7022     1.31041e-28 
        48.7292     1.37762e-28 
        48.7563     1.44828e-28 
        48.7834     1.52255e-28 
        48.8105     1.60065e-28 
        48.8376     1.68275e-28 
        48.8647     1.76904e-28 
        48.8919     1.85978e-28 
         48.919     1.95518e-28 
        48.9463     2.05545e-28 
        48.9735     2.16086e-28 
        49.0007      2.2717e-28 
        49.0279     2.38821e-28 
        49.0551     2.51069e-28 
        49.0824     2.63946e-28 
        49.1097     2.77484e-28 
         49.137     2.91716e-28 
        49.1643     3.06677e-28 
        49.1916     3.22406e-28 
        49.2189     3.38943e-28 
        49.2463     3.56327e-28 
        49.2737     3.74602e-28 
         49.301     3.93816e-28 
        49.3284     4.14014e-28 
        49.3559     4.35247e-28 
        49.3833     4.57572e-28 
        49.4107      4.8104e-28 
        49.4382     5.05712e-28 
        49.4656     5.31649e-28 
        49.4932     5.58916e-28 
        49.5206     5.87583e-28 
        49.5481      6.1772e-28 
        49.5757     6.49403e-28 
        49.6032     6.82709e-28 
        49.6308     7.17723e-28 
        49.6584     7.54537e-28 
         49.686     7.93234e-28 
        49.7136     8.33919e-28 
        49.7412     8.76689e-28 
        49.7688     9.21655e-28 
        49.7965     9.68924e-28 
        49.8242     1.01862e-27 
        49.8519     1.07086e-27 
        49.8796     1.12579e-27 
        49.9073     1.18353e-27 
         49.935     1.24423e-27 
        49.9627     1.30805e-27 
        49.9906     1.37513e-27 
        50.0183     1.44566e-27 
        50.0462      1.5198e-27 
        50.0739     1.59776e-27 
        50.1018      1.6797e-27 
        50.1296     1.76585e-27 
        50.1574     1.85642e-27 
        50.1853     1.95163e-27 
        50.2132     2.05174e-27 
        50.2412     2.15696e-27 
         50.269     2.26759e-27 
         50.297     2.38389e-27 
        50.3249     2.50617e-27 
        50.3529     2.63471e-27 
        50.3809     2.76983e-27 
        50.4088      2.9119e-27 
        50.4369     3.06124e-27 
        50.4649     3.21825e-27 
         50.493     3.38331e-27 
         50.521     3.55684e-27 
        50.5491     3.73926e-27 
        50.5771     3.92987e-27 
        50.6053     4.12404e-27 
        50.6334     4.32786e-27 
        50.6616     4.54176e-27 
        50.6897     4.76623e-27 
        50.7179     5.00178e-27 
        50.7461     5.24899e-27 
        50.7742     5.50841e-27 
        50.8025     5.78064e-27 
        50.8307     6.06634e-27 
        50.8589     6.36615e-27 
        50.8872     6.68078e-27 
        50.9155     7.01096e-27 
        50.9438     7.35747e-27 
        50.9721     7.72109e-27 
        51.0004      8.1027e-27 
        51.0288     8.50313e-27 
        51.0571     8.92339e-27 
        51.0855     9.36441e-27 
        51.1139     9.82722e-27 
        51.1423     1.03129e-26 
        51.1707     1.08226e-26 
        51.1991     1.13575e-26 
        51.2276     1.19188e-26 
         51.256     1.25078e-26 
        51.2845      1.3126e-26 
        51.3131     1.37747e-26 
        51.3415     1.44555e-26 
          51.37       1.517e-26 
        51.3987     1.59197e-26 
        51.4272     1.67064e-26 
        51.4557     1.75321e-26 
        51.4844     1.83986e-26 
        51.5129      1.9308e-26 
        51.5416     2.02622e-26 
        51.5703     2.12635e-26 
        51.5989     2.23145e-26 
        51.6276     2.34173e-26 
        51.6563     2.45746e-26 
         51.685     2.57892e-26 
        51.7137     2.70637e-26 
        51.7424     2.84013e-26 
        51.7712      2.9805e-26 
           51.8     3.12779e-26 
        51.8287     3.28238e-26 
        51.8575      3.4446e-26 
        51.8863     3.61486e-26 
        51.9152      3.7935e-26 
         51.944     3.98098e-26 
        51.9729     4.17775e-26 
        52.0018      4.3842e-26 
        52.0307     4.60089e-26 
        52.0596     4.82828e-26 
        52.0885      5.0669e-26 
        52.1175      5.3173e-26 
        52.1464     5.58011e-26 
        52.1754      5.8559e-26 
        52.2044     6.14532e-26 
        52.2334     6.44904e-26 
        52.2624     6.76775e-26 
        52.2915     7.10222e-26 
        52.3205     7.45325e-26 
        52.3496      7.8216e-26 
        52.3787     8.20817e-26 
        52.4078     8.61383e-26 
        52.4369     9.03954e-26 
        52.4661     9.48628e-26 
        52.4952     9.95514e-26 
        52.5244     1.04471e-25 
        52.5536     1.09635e-25 
        52.5828     1.15053e-25 
        52.6121     1.20739e-25 
        52.6413     1.26707e-25 
        52.6705     1.32969e-25 
        52.6997     1.39541e-25 
         52.729     1.46437e-25 
        52.7583     1.53674e-25 
        52.7877     1.61269e-25 
         52.817     1.69111e-25 
        52.8463     1.77127e-25 
        52.8758      1.8554e-25 
        52.9051     1.94354e-25 
        52.9345     2.03586e-25 
         52.964     2.13256e-25 
        52.9934     2.23385e-25 
        53.0228     2.33996e-25 
        53.0523     2.45111e-25 
        53.0818     2.56753e-25 
        53.1113      2.6895e-25 
        53.1407     2.81725e-25 
        53.1703     2.95105e-25 
        53.1999     3.09123e-25 
        53.2294     3.23807e-25 
         53.259     3.39187e-25 
        53.2886     3.55299e-25 
        53.3182     3.72175e-25 
        53.3478     3.89853e-25 
        53.3775     4.08372e-25 
        53.4071     4.27769e-25 
        53.4368     4.48089e-25 
        53.4665     4.69373e-25 
        53.4963     4.91667e-25 
         53.526     5.15021e-25 
        53.5557     5.39486e-25 
        53.5855     5.65111e-25 
        53.6153     5.91952e-25 
         53.645     6.20071e-25 
        53.6749     6.49523e-25 
        53.7047     6.80376e-25 
        53.7345     7.12693e-25 
        53.7644     7.46546e-25 
        53.7942     7.82008e-25 
        53.8242     8.19153e-25 
         53.854     8.58062e-25 
        53.8839     8.98821e-25 
        53.9139     9.41515e-25 
        53.9439     9.86236e-25 
        53.9739     1.03308e-24 
        54.0038     1.08215e-24 
        54.0339     1.13355e-24 
        54.0639      1.1874e-24 
         54.094      1.2438e-24 
         54.124     1.30287e-24 
         54.154     1.36476e-24 
        54.1842      1.4296e-24 
        54.2143     1.49749e-24 
        54.2444     1.56863e-24 
        54.2745     1.64314e-24 
        54.3047     1.72118e-24 
        54.3349     1.80294e-24 
        54.3651     1.88858e-24 
        54.3953     1.97829e-24 
        54.4255     2.07225e-24 
        54.4557     2.17068e-24 
         54.486      2.2738e-24 
        54.5163     2.38179e-24 
        54.5466     2.49493e-24 
        54.5769     2.61344e-24 
        54.6072     2.73758e-24 
        54.6376     2.86762e-24 
        54.6679     3.00382e-24 
        54.6984      3.1465e-24 
        54.7287     3.29596e-24 
        54.7591     3.45252e-24 
        54.7895     3.61651e-24 
          54.82      3.7883e-24 
        54.8505     3.96825e-24 
         54.881     4.15672e-24 
        54.9115     4.35418e-24 
         54.942       4.561e-24 
        54.9725     4.77765e-24 
         55.003     5.00458e-24 
        55.0336     5.24229e-24 
        55.0642     5.49131e-24 
        55.0948     5.75213e-24 
        55.1254     6.02537e-24 
        55.1561     6.31157e-24 
        55.1867     6.61137e-24 
        55.2174      6.9254e-24 
         55.248     7.25124e-24 
        55.2788     7.58138e-24 
        55.3095     7.92678e-24 
        55.3402     8.28793e-24 
         55.371     8.66552e-24 
        55.4017     9.06034e-24 
        55.4325      9.4731e-24 
        55.4633      9.9047e-24 
        55.4941      1.0356e-23 
         55.525     1.08277e-23 
        55.5558     1.13211e-23 
        55.5867     1.18369e-23 
        55.6176     1.23761e-23 
        55.6485       1.294e-23 
        55.6794     1.35296e-23 
        55.7104     1.41459e-23 
        55.7413     1.47904e-23 
        55.7723     1.54643e-23 
        55.8033     1.61688e-23 
        55.8343     1.69055e-23 
        55.8653     1.76757e-23 
        55.8964     1.84809e-23 
        55.9275     1.93229e-23 
        55.9586     2.02032e-23 
        55.9896     2.11237e-23 
        56.0208      2.2086e-23 
        56.0519     2.30923e-23 
         56.083     2.41444e-23 
        56.1142     2.52444e-23 
        56.1453     2.63946e-23 
        56.1766     2.75971e-23 
        56.2077     2.88544e-23 
        56.2391     3.01688e-23 
        56.2703     3.15434e-23 
        56.3016     3.29805e-23 
        56.3328     3.44831e-23 
        56.3642     3.60542e-23 
        56.3954     3.76968e-23 
        56.4268     3.94141e-23 
        56.4582     4.12099e-23 
        56.4896     4.30872e-23 
        56.5209     4.50504e-23 
        56.5523     4.71028e-23 
        56.5837     4.92489e-23 
        56.6152     5.14925e-23 
        56.6467     5.38386e-23 
        56.6782     5.62914e-23 
        56.7096     5.88562e-23 
        56.7412     6.15375e-23 
        56.7726     6.43412e-23 
        56.8043     6.72724e-23 
        56.8358     7.03373e-23 
        56.8674     7.35419e-23 
         56.899     7.68923e-23 
        56.9306     8.03957e-23 
        56.9623     8.40583e-23 
        56.9939     8.78881e-23 
        57.0256     9.18923e-23 
        57.0572     9.60788e-23 
         57.089     1.00456e-22 
        57.1207     1.05033e-22 
        57.1524     1.09818e-22 
        57.1841     1.14822e-22 
         57.216     1.20053e-22 
        57.2478     1.25522e-22 
        57.2795     1.31241e-22 
        57.3114      1.3722e-22 
        57.3433     1.43472e-22 
        57.3751     1.50009e-22 
         57.407     1.56843e-22 
        57.4389     1.63988e-22 
        57.4708     1.71459e-22 
        57.5028      1.7927e-22 
        57.5347     1.87439e-22 
        57.5667     1.95978e-22 
        57.5987     2.04906e-22 
        57.6307     2.14242e-22 
        57.6627     2.24003e-22 
        57.6948     2.34208e-22 
        57.7268      2.4488e-22 
        57.7589     2.56035e-22 
         57.791       2.677e-22 
        57.8231     2.79896e-22 
        57.8552     2.92649e-22 
        57.8874     3.05981e-22 
        57.9196     3.19803e-22 
        57.9517     3.33752e-22 
        57.9839     3.48306e-22 
        58.0162     3.63491e-22 
        58.0485     3.79342e-22 
        58.0806     3.95883e-22 
        58.1129     4.13146e-22 
        58.1453      4.3116e-22 
        58.1776      4.4996e-22 
        58.2099     4.69581e-22 
        58.2422     4.90057e-22 
        58.2746     5.11424e-22 
         58.307     5.33724e-22 
        58.3393     5.56999e-22 
        58.3718     5.81284e-22 
        58.4042     6.06631e-22 
        58.4367     6.33083e-22 
        58.4692     6.60688e-22 
        58.5017     6.89496e-22 
        58.5341     7.19563e-22 
        58.5667     7.50938e-22 
        58.5992     7.83683e-22 
        58.6318     8.17855e-22 
        58.6644     8.53516e-22 
         58.697     8.90732e-22 
        58.7296      9.2957e-22 
        58.7622     9.70106e-22 
        58.7949      1.0124e-21 
        58.8276     1.05655e-21 
        58.8603     1.10262e-21 
         58.893      1.1507e-21 
        58.9256     1.20088e-21 
        58.9584     1.25323e-21 
        58.9912     1.30789e-21 
         59.024     1.36491e-21 
        59.0568     1.42443e-21 
        59.0896     1.48654e-21 
        59.1224     1.55137e-21 
        59.1553       1.619e-21 
        59.1882      1.6896e-21 
        59.2211     1.76327e-21 
         59.254     1.84016e-21 
        59.2869      1.9204e-21 
        59.3199     2.00414e-21 
        59.3529     2.09152e-21 
        59.3858     2.18273e-21 
        59.4187      2.2779e-21 
        59.4518     2.37722e-21 
        59.4849     2.48088e-21 
        59.5179     2.58905e-21 
        59.5509     2.70196e-21 
        59.5841     2.81977e-21 
        59.6171     2.94273e-21 
        59.6503     3.07104e-21 
        59.6835     3.20495e-21 
        59.7166     3.34469e-21 
        59.7498     3.49054e-21 
         59.783     3.64275e-21 
        59.8162     3.80158e-21 
        59.8494     3.96735e-21 
        59.8827     4.14035e-21 
        59.9161     4.32087e-21 
        59.9493     4.50929e-21 
        59.9826      4.7059e-21 
         60.016      4.9111e-21 
        60.0493     5.12525e-21 
        60.0826     5.34874e-21 
        60.1161     5.58194e-21 
        60.1495     5.82534e-21 
        60.1829     6.07937e-21 
        60.2163     6.34444e-21 
        60.2499     6.62108e-21 
        60.2833      6.9098e-21 
        60.3168      7.2111e-21 
        60.3503     7.52553e-21 
        60.3838     7.85368e-21 
        60.4174     8.19612e-21 
        60.4509     8.55352e-21 
        60.4846     8.92647e-21 
        60.5182     9.31571e-21 
        60.5518     9.72192e-21 
        60.5854     1.01458e-20 
        60.6191     1.05882e-20 
        60.6528     1.10499e-20 
        60.6865     1.15317e-20 
        60.7203     1.20346e-20 
         60.754     1.25593e-20 
        60.7878     1.31069e-20 
        60.8215     1.36785e-20 
        60.8554     1.42736e-20 
        60.8891     1.48716e-20 
         60.923     1.54908e-20 
        60.9568     1.61359e-20 
        60.9907     1.68076e-20 
        61.0246     1.75075e-20 
        61.0585     1.82365e-20 
        61.0925     1.89957e-20 
        61.1264     1.97867e-20 
        61.1604     2.06105e-20 
        61.1944     2.14687e-20 
        61.2284     2.23626e-20 
        61.2624     2.32936e-20 
        61.2965     2.42635e-20 
        61.3305     2.52738e-20 
        61.3646     2.63261e-20 
        61.3987     2.74223e-20 
        61.4328     2.85641e-20 
        61.4669     2.97534e-20 
        61.5011     3.09923e-20 
        61.5353     3.22826e-20 
        61.5694     3.36269e-20 
        61.6037     3.50269e-20 
        61.6379     3.64853e-20 
        61.6721     3.80046e-20 
        61.7064     3.95869e-20 
        61.7407     4.12351e-20 
         61.775      4.2952e-20 
        61.8093     4.47405e-20 
        61.8437     4.66032e-20 
        61.8781     4.85436e-20 
        61.9124     5.05649e-20 
        61.9469     5.26703e-20 
        61.9813     5.48632e-20 
        62.0157     5.71478e-20 
        62.0502      5.9527e-20 
        62.0846     6.20057e-20 
        62.1191     6.45874e-20 
        62.1536     6.72766e-20 
        62.1882     7.00778e-20 
        62.2228     7.29956e-20 
        62.2574     7.60347e-20 
        62.2919     7.92007e-20 
        62.3265     8.24985e-20 
        62.3613     8.59332e-20 
        62.3959     8.95112e-20 
        62.4305     9.32385e-20 
        62.4652       9.712e-20 
