# TLUSTY OSTAR2002+BSTAR2006
# teff = 35000 K (value for the effective temperature for the model. Temperatures are given in K)
# logg = 4 log(cm/s2) (value for Log(G) for the model.)
# z = 0.5  (Z/Z0)
#
# column 1: WAVELENGTH (ANGSTROM), Wavelength in Angstrom
# column 2: FLUX (ERG/CM2/S/A), Flux in erg/cm2/s/A
        44.8829     6.11581e-36 
        44.9078     6.38269e-36 
        44.9328     6.75958e-36 
        44.9578     7.15869e-36 
        44.9827     7.58138e-36 
        45.0077     8.02906e-36 
        45.0327     8.50314e-36 
        45.0578     9.00521e-36 
        45.0828     9.53695e-36 
        45.1079        1.01e-35 
        45.1329     1.06964e-35 
         45.158      1.1328e-35 
        45.1831     1.19969e-35 
        45.2082     1.27053e-35 
        45.2333     1.34555e-35 
        45.2585       1.425e-35 
        45.2836     1.50914e-35 
        45.3088     1.59825e-35 
        45.3339     1.69262e-35 
        45.3592     1.79256e-35 
        45.3844     1.89841e-35 
        45.4096     2.01051e-35 
        45.4348     2.12922e-35 
        45.4601     2.25495e-35 
        45.4853     2.38808e-35 
        45.5106     2.52909e-35 
        45.5359     2.67842e-35 
        45.5612     2.83659e-35 
        45.5865     3.00408e-35 
        45.6118     3.18145e-35 
        45.6372     3.36931e-35 
        45.6626     3.56825e-35 
         45.688     3.77895e-35 
        45.7133     4.00209e-35 
        45.7388     4.23838e-35 
        45.7642     4.48865e-35 
        45.7896      4.7537e-35 
         45.815     5.03438e-35 
        45.8405     5.33165e-35 
         45.866     5.64645e-35 
        45.8915     5.97985e-35 
         45.917     6.33295e-35 
        45.9425     6.70688e-35 
         45.968      7.1029e-35 
        45.9936     7.52231e-35 
        46.0191     7.96648e-35 
        46.0447     8.43686e-35 
        46.0702     8.93504e-35 
        46.0959      9.4626e-35 
        46.1215     1.00213e-34 
        46.1471     1.06131e-34 
        46.1728     1.12397e-34 
        46.1984     1.19034e-34 
        46.2241     1.26063e-34 
        46.2498     1.33506e-34 
        46.2755     1.41389e-34 
        46.3012     1.49738e-34 
        46.3269      1.5858e-34 
        46.3527     1.67943e-34 
        46.3784      1.7786e-34 
        46.4042     1.88361e-34 
          46.43     1.99483e-34 
        46.4558     2.11263e-34 
        46.4816     2.23736e-34 
        46.5074     2.36948e-34 
        46.5333     2.50939e-34 
        46.5591     2.65755e-34 
         46.585     2.81447e-34 
        46.6109     2.98065e-34 
        46.6368      3.1553e-34 
        46.6627     3.33393e-34 
        46.6886     3.52276e-34 
        46.7146     3.72229e-34 
        46.7405     3.93313e-34 
        46.7665     4.15591e-34 
        46.7925      4.3913e-34 
        46.8185     4.64001e-34 
        46.8445     4.90282e-34 
        46.8705     5.18053e-34 
        46.8966     5.47397e-34 
        46.9226     5.78402e-34 
        46.9487     6.11162e-34 
        46.9748     6.45778e-34 
        47.0009     6.82357e-34 
        47.0271     7.21004e-34 
        47.0532     7.61843e-34 
        47.0794     8.04993e-34 
        47.1055      8.5059e-34 
        47.1317     8.98766e-34 
        47.1579     9.49674e-34 
        47.1841     1.00346e-33 
        47.2103      1.0603e-33 
        47.2366     1.12036e-33 
        47.2628     1.18382e-33 
         47.289     1.25087e-33 
        47.3154     1.32171e-33 
        47.3416     1.39658e-33 
        47.3679     1.47568e-33 
        47.3943     1.55926e-33 
        47.4206     1.64758e-33 
        47.4469     1.74091e-33 
        47.4733     1.83951e-33 
        47.4997     1.94369e-33 
        47.5261     2.05379e-33 
        47.5525     2.17012e-33 
        47.5789     2.29305e-33 
        47.6054     2.42292e-33 
        47.6318     2.56016e-33 
        47.6583     2.70517e-33 
        47.6847     2.85839e-33 
        47.7113     3.02027e-33 
        47.7378     3.19136e-33 
        47.7643     3.37212e-33 
        47.7908     3.56311e-33 
        47.8174     3.76495e-33 
         47.844     3.97818e-33 
        47.8706     4.20351e-33 
        47.8971     4.44161e-33 
        47.9238     4.69317e-33 
        47.9505     4.95899e-33 
        47.9771     5.23987e-33 
        48.0037     5.53666e-33 
        48.0304     5.85026e-33 
        48.0571     6.18164e-33 
        48.0838     6.53175e-33 
        48.1105     6.90172e-33 
        48.1372     7.29264e-33 
         48.164     7.70571e-33 
        48.1908     8.14214e-33 
        48.2175     8.60334e-33 
        48.2444     9.09062e-33 
        48.2712     9.60552e-33 
         48.298     1.01496e-32 
        48.3248     1.07245e-32 
        48.3517     1.13319e-32 
        48.3785     1.19738e-32 
        48.4054      1.2652e-32 
        48.4323     1.33686e-32 
        48.4592     1.41258e-32 
        48.4862     1.49259e-32 
        48.5131     1.57728e-32 
          48.54     1.66393e-32 
         48.567     1.75419e-32 
         48.594     1.84934e-32 
         48.621     1.94965e-32 
         48.648     2.05542e-32 
        48.6751      2.1669e-32 
        48.7022     2.28444e-32 
        48.7292     2.40835e-32 
        48.7563     2.53901e-32 
        48.7834     2.67673e-32 
        48.8105     2.82192e-32 
        48.8376     2.97501e-32 
        48.8647     3.13637e-32 
        48.8919      3.3065e-32 
         48.919     3.48586e-32 
        48.9463     3.67494e-32 
        48.9735     3.87429e-32 
        49.0007     4.08444e-32 
        49.0279       4.306e-32 
        49.0551     4.53957e-32 
        49.0824     4.78581e-32 
        49.1097     5.04541e-32 
         49.137     5.31909e-32 
        49.1643     5.60761e-32 
        49.1916     5.91178e-32 
        49.2189     6.23247e-32 
        49.2463     6.57055e-32 
        49.2737     6.92695e-32 
         49.301     7.30271e-32 
        49.3284     7.69883e-32 
        49.3559     8.11643e-32 
        49.3833      8.5567e-32 
        49.4107     9.02087e-32 
        49.4382     9.51019e-32 
        49.4656      1.0026e-31 
        49.4932     1.05699e-31 
        49.5206     1.11432e-31 
        49.5481     1.17477e-31 
        49.5757     1.23849e-31 
        49.6032     1.30567e-31 
        49.6308      1.3765e-31 
        49.6584     1.45117e-31 
         49.686     1.52987e-31 
        49.7136     1.61287e-31 
        49.7412     1.70035e-31 
        49.7688      1.7926e-31 
        49.7965     1.88983e-31 
        49.8242     1.99234e-31 
        49.8519      2.1004e-31 
        49.8796     2.21434e-31 
        49.9073     2.33446e-31 
         49.935     2.46109e-31 
        49.9627     2.59459e-31 
        49.9906     2.73533e-31 
        50.0183      2.8837e-31 
        50.0462     3.04011e-31 
        50.0739     3.20504e-31 
        50.1018     3.37888e-31 
        50.1296     3.56217e-31 
        50.1574     3.75539e-31 
        50.1853      3.9591e-31 
        50.2132     4.17385e-31 
        50.2412     4.40025e-31 
         50.269     4.63894e-31 
         50.297     4.89057e-31 
        50.3249     5.15586e-31 
        50.3529     5.43554e-31 
        50.3809     5.73038e-31 
        50.4088     6.04122e-31 
        50.4369      6.3689e-31 
        50.4649     6.71438e-31 
         50.493     7.07859e-31 
         50.521     7.46257e-31 
        50.5491     7.86736e-31 
        50.5771     8.29077e-31 
        50.6053     8.72079e-31 
        50.6334     9.17308e-31 
        50.6616     9.64881e-31 
        50.6897     1.01492e-30 
        50.7179     1.06756e-30 
        50.7461     1.12292e-30 
        50.7742     1.18116e-30 
        50.8025     1.24242e-30 
        50.8307     1.30685e-30 
        50.8589     1.37463e-30 
        50.8872     1.44591e-30 
        50.9155     1.52091e-30 
        50.9438     1.59978e-30 
        50.9721     1.68274e-30 
        51.0004     1.77001e-30 
        51.0288     1.86181e-30 
        51.0571     1.95838e-30 
        51.0855     2.05994e-30 
        51.1139     2.16676e-30 
        51.1423     2.27914e-30 
        51.1707     2.39733e-30 
        51.1991     2.52167e-30 
        51.2276     2.65244e-30 
         51.256     2.79001e-30 
        51.2845      2.9347e-30 
        51.3131     3.08689e-30 
        51.3415     3.24698e-30 
          51.37     3.41538e-30 
        51.3987      3.5925e-30 
        51.4272     3.77881e-30 
        51.4557     3.97479e-30 
        51.4844     4.18094e-30 
        51.5129     4.39777e-30 
        51.5416     4.62583e-30 
        51.5703     4.86573e-30 
        51.5989      5.1181e-30 
        51.6276     5.38353e-30 
        51.6563      5.6627e-30 
         51.685      5.9564e-30 
        51.7137     6.26531e-30 
        51.7424     6.59023e-30 
        51.7712       6.932e-30 
           51.8      7.2915e-30 
        51.8287     7.66967e-30 
        51.8575     8.06743e-30 
        51.8863     8.48582e-30 
        51.9152     8.92591e-30 
         51.944     9.38881e-30 
        51.9729     9.87575e-30 
        52.0018     1.03879e-29 
        52.0307     1.09266e-29 
        52.0596     1.14933e-29 
        52.0885     1.20894e-29 
        52.1175     1.27163e-29 
        52.1464     1.33758e-29 
        52.1754     1.40695e-29 
        52.2044     1.47993e-29 
        52.2334     1.55667e-29 
        52.2624     1.63741e-29 
        52.2915     1.72232e-29 
        52.3205     1.81165e-29 
        52.3496     1.90559e-29 
        52.3787     2.00443e-29 
        52.4078     2.10838e-29 
        52.4369     2.21772e-29 
        52.4661     2.33273e-29 
        52.4952     2.45371e-29 
        52.5244     2.58096e-29 
        52.5536     2.71483e-29 
        52.5828     2.85561e-29 
        52.6121     3.00371e-29 
        52.6413     3.15948e-29 
        52.6705     3.32335e-29 
        52.6997     3.49571e-29 
         52.729     3.67699e-29 
        52.7583     3.86769e-29 
        52.7877     4.06826e-29 
         52.817     4.27521e-29 
        52.8463     4.48638e-29 
        52.8758     4.70841e-29 
        52.9051     4.94148e-29 
        52.9345     5.18606e-29 
         52.964     5.44274e-29 
        52.9934     5.71215e-29 
        53.0228     5.99487e-29 
        53.0523      6.2916e-29 
        53.0818       6.603e-29 
        53.1113     6.92983e-29 
        53.1407     7.27283e-29 
        53.1703     7.63279e-29 
        53.1999     8.01059e-29 
        53.2294     8.40708e-29 
         53.259     8.82318e-29 
        53.2886     9.25992e-29 
        53.3182     9.71823e-29 
        53.3478     1.01993e-28 
        53.3775     1.07041e-28 
        53.4071     1.12339e-28 
        53.4368     1.17899e-28 
        53.4665     1.23735e-28 
        53.4963     1.29859e-28 
         53.526     1.36287e-28 
        53.5557     1.43033e-28 
        53.5855     1.50112e-28 
        53.6153     1.57541e-28 
         53.645     1.65339e-28 
        53.6749     1.73523e-28 
        53.7047     1.82112e-28 
        53.7345     1.91126e-28 
        53.7644     2.00585e-28 
        53.7942     2.10514e-28 
        53.8242     2.20934e-28 
         53.854     2.31869e-28 
        53.8839     2.43346e-28 
        53.9139      2.5539e-28 
        53.9439      2.6803e-28 
        53.9739     2.81297e-28 
        54.0038      2.9522e-28 
        54.0339     3.09832e-28 
        54.0639     3.25168e-28 
         54.094     3.41263e-28 
         54.124     3.58154e-28 
         54.154     3.75881e-28 
        54.1842     3.94485e-28 
        54.2143      4.1401e-28 
        54.2444     4.34502e-28 
        54.2745     4.56009e-28 
        54.3047     4.78579e-28 
        54.3349     5.02266e-28 
        54.3651     5.27127e-28 
        54.3953     5.53218e-28 
        54.4255       5.806e-28 
        54.4557     6.09337e-28 
         54.486     6.39497e-28 
        54.5163     6.71148e-28 
        54.5466     7.04369e-28 
        54.5769     7.39233e-28 
        54.6072     7.75822e-28 
        54.6376     8.14222e-28 
        54.6679     8.54521e-28 
        54.6984     8.96816e-28 
        54.7287     9.41207e-28 
        54.7591     9.87792e-28 
        54.7895     1.03669e-27 
          54.82       1.088e-27 
        54.8505     1.14185e-27 
         54.881     1.19836e-27 
        54.9115     1.25768e-27 
         54.942     1.31993e-27 
        54.9725     1.38526e-27 
         55.003     1.45382e-27 
        55.0336     1.52578e-27 
        55.0642     1.60131e-27 
        55.0948     1.68056e-27 
        55.1254     1.76374e-27 
        55.1561     1.85104e-27 
        55.1867     1.94266e-27 
        55.2174      2.0388e-27 
         55.248     2.13859e-27 
        55.2788     2.23939e-27 
        55.3095       2.345e-27 
        55.3402     2.45558e-27 
         55.371     2.57139e-27 
        55.4017     2.69266e-27 
        55.4325     2.81964e-27 
        55.4633     2.95261e-27 
        55.4941     3.09186e-27 
         55.525     3.23765e-27 
        55.5558     3.39035e-27 
        55.5867     3.55023e-27 
        55.6176     3.71765e-27 
        55.6485     3.89296e-27 
        55.6794     4.07656e-27 
        55.7104     4.26881e-27 
        55.7413     4.47011e-27 
        55.7723     4.68091e-27 
        55.8033     4.90167e-27 
        55.8343     5.13281e-27 
        55.8653     5.37487e-27 
        55.8964     5.62835e-27 
        55.9275     5.89376e-27 
        55.9586      6.1717e-27 
        55.9896     6.46276e-27 
        56.0208     6.76752e-27 
        56.0519     7.08668e-27 
         56.083     7.42087e-27 
        56.1142     7.77083e-27 
        56.1453     8.13731e-27 
        56.1766     8.52105e-27 
        56.2077      8.9229e-27 
        56.2391     9.34366e-27 
        56.2703      9.7843e-27 
        56.3016     1.02457e-26 
        56.3328     1.07289e-26 
        56.3642     1.12348e-26 
        56.3954     1.17647e-26 
        56.4268     1.23195e-26 
        56.4582     1.29004e-26 
        56.4896     1.35089e-26 
        56.5209     1.41459e-26 
        56.5523     1.48129e-26 
        56.5837     1.55115e-26 
        56.6152      1.6243e-26 
        56.6467      1.7009e-26 
        56.6782     1.78111e-26 
        56.7096     1.86511e-26 
        56.7412     1.95306e-26 
        56.7726     2.04518e-26 
        56.8043     2.14162e-26 
        56.8358     2.24261e-26 
        56.8674     2.34837e-26 
         56.899     2.45911e-26 
        56.9306     2.57508e-26 
        56.9623     2.69652e-26 
        56.9939     2.82369e-26 
        57.0256     2.95686e-26 
        57.0572     3.09629e-26 
         57.089     3.24231e-26 
        57.1207      3.3952e-26 
        57.1524     3.55533e-26 
        57.1841       3.723e-26 
         57.216     3.89856e-26 
        57.2478     4.08241e-26 
        57.2795     4.27493e-26 
        57.3114     4.47653e-26 
        57.3433     4.68763e-26 
        57.3751      4.9087e-26 
         57.407      5.1402e-26 
        57.4389     5.38259e-26 
        57.4708     5.63643e-26 
        57.5028     5.90223e-26 
        57.5347     6.18058e-26 
        57.5667     6.47204e-26 
        57.5987     6.77726e-26 
        57.6307     7.09686e-26 
        57.6627     7.43154e-26 
        57.6948     7.78199e-26 
        57.7268     8.14901e-26 
        57.7589     8.53328e-26 
         57.791      8.9357e-26 
        57.8231     9.35711e-26 
        57.8552     9.79838e-26 
        57.8874     1.02604e-25 
        57.9196     1.07395e-25 
        57.9517     1.12215e-25 
        57.9839     1.17249e-25 
        58.0162     1.22508e-25 
        58.0485     1.28003e-25 
        58.0806     1.33745e-25 
        58.1129     1.39744e-25 
        58.1453     1.46011e-25 
        58.1776     1.52561e-25 
        58.2099     1.59404e-25 
        58.2422     1.66554e-25 
        58.2746     1.74025e-25 
         58.307      1.8183e-25 
        58.3393     1.89987e-25 
        58.3718     1.98508e-25 
        58.4042     2.07413e-25 
        58.4367     2.16716e-25 
        58.4692     2.26438e-25 
        58.5017     2.36594e-25 
        58.5341     2.47207e-25 
        58.5667     2.58294e-25 
        58.5992      2.6988e-25 
        58.6318     2.81986e-25 
        58.6644     2.94635e-25 
         58.697      3.0785e-25 
        58.7296     3.21659e-25 
        58.7622     3.36088e-25 
        58.7949     3.51162e-25 
        58.8276     3.66913e-25 
        58.8603     3.83371e-25 
         58.893     4.00567e-25 
        58.9256     4.18536e-25 
        58.9584     4.37308e-25 
        58.9912     4.56924e-25 
         59.024     4.77418e-25 
        59.0568     4.98834e-25 
        59.0896     5.21208e-25 
        59.1224     5.44588e-25 
        59.1553     5.69015e-25 
        59.1882     5.94537e-25 
        59.2211     6.21206e-25 
         59.254      6.4907e-25 
        59.2869     6.78185e-25 
        59.3199     7.08604e-25 
        59.3529     7.40388e-25 
        59.3858     7.73599e-25 
        59.4187       8.083e-25 
        59.4518     8.44554e-25 
        59.4849     8.82437e-25 
        59.5179     9.22018e-25 
        59.5509     9.63378e-25 
        59.5841     1.00659e-24 
        59.6171     1.05174e-24 
        59.6503     1.09892e-24 
        59.6835     1.14821e-24 
        59.7166     1.19971e-24 
        59.7498     1.25352e-24 
         59.783     1.30975e-24 
        59.8162     1.36849e-24 
        59.8494     1.42988e-24 
        59.8827     1.49402e-24 
        59.9161     1.56102e-24 
        59.9493     1.63106e-24 
        59.9826     1.70422e-24 
         60.016     1.78065e-24 
        60.0493     1.86053e-24 
        60.0826     1.94398e-24 
        60.1161     2.03117e-24 
        60.1495     2.12228e-24 
        60.1829     2.21748e-24 
        60.2163     2.31695e-24 
        60.2499     2.42087e-24 
        60.2833     2.52946e-24 
        60.3168     2.64292e-24 
        60.3503     2.76147e-24 
        60.3838     2.88534e-24 
        60.4174     3.01475e-24 
        60.4509     3.14998e-24 
        60.4846     3.29128e-24 
        60.5182      3.4389e-24 
        60.5518     3.59316e-24 
        60.5854     3.75433e-24 
        60.6191     3.92273e-24 
        60.6528     4.09867e-24 
        60.6865     4.28253e-24 
        60.7203     4.47462e-24 
         60.754     4.67532e-24 
        60.7878     4.88504e-24 
        60.8215     5.10416e-24 
        60.8554     5.33252e-24 
        60.8891     5.56127e-24 
         60.923     5.79814e-24 
        60.9568     6.04513e-24 
        60.9907     6.30261e-24 
        61.0246     6.57107e-24 
        61.0585     6.85096e-24 
        61.0925     7.14277e-24 
        61.1264     7.44703e-24 
        61.1604     7.76422e-24 
        61.1944     8.09494e-24 
        61.2284     8.43975e-24 
        61.2624     8.79924e-24 
        61.2965     9.17402e-24 
        61.3305     9.56482e-24 
        61.3646     9.97221e-24 
        61.3987      1.0397e-23 
        61.4328     1.08399e-23 
        61.4669     1.13016e-23 
        61.5011     1.17829e-23 
        61.5353     1.22848e-23 
        61.5694     1.28081e-23 
        61.6037     1.33537e-23 
        61.6379     1.39225e-23 
        61.6721     1.45155e-23 
        61.7064     1.51338e-23 
        61.7407     1.57784e-23 
         61.775     1.64505e-23 
        61.8093     1.71512e-23 
        61.8437     1.78817e-23 
        61.8781     1.86434e-23 
        61.9124     1.94376e-23 
        61.9469     2.02655e-23 
        61.9813     2.11286e-23 
        62.0157     2.20287e-23 
        62.0502      2.2967e-23 
        62.0846     2.39453e-23 
        62.1191     2.49652e-23 
        62.1536     2.60286e-23 
        62.1882     2.71373e-23 
        62.2228     2.82932e-23 
        62.2574     2.94982e-23 
        62.2919     3.07547e-23 
        62.3265     3.20648e-23 
        62.3613     3.34304e-23 
        62.3959     3.48544e-23 
        62.4305     3.63392e-23 
        62.4652     3.78869e-23 
