# TLUSTY OSTAR2002+BSTAR2006
# teff = 37500 K (value for the effective temperature for the model. Temperatures are given in K)
# logg = 3.5 log(cm/s2) (value for Log(G) for the model.)
# z = 0.5  (Z/Z0)
#
# column 1: WAVELENGTH (ANGSTROM), Wavelength in Angstrom
# column 2: FLUX (ERG/CM2/S/A), Flux in erg/cm2/s/A
        44.8829     7.15392e-29 
        44.9078     7.43387e-29 
        44.9328     7.82745e-29 
        44.9578     8.24187e-29 
        44.9827     8.67824e-29 
        45.0077     9.13771e-29 
        45.0327     9.62151e-29 
        45.0578     1.01309e-28 
        45.0828     1.06673e-28 
        45.1079     1.12321e-28 
        45.1329     1.18267e-28 
         45.158     1.24529e-28 
        45.1831     1.31122e-28 
        45.2082     1.38065e-28 
        45.2333     1.45374e-28 
        45.2585     1.53071e-28 
        45.2836     1.61176e-28 
        45.3088     1.69709e-28 
        45.3339     1.78694e-28 
        45.3592     1.88155e-28 
        45.3844     1.98117e-28 
        45.4096     2.08607e-28 
        45.4348     2.19652e-28 
        45.4601     2.31281e-28 
        45.4853     2.43526e-28 
        45.5106     2.56419e-28 
        45.5359     2.69995e-28 
        45.5612      2.8429e-28 
        45.5865     2.99342e-28 
        45.6118     3.15191e-28 
        45.6372     3.31879e-28 
        45.6626      3.4945e-28 
         45.688      3.6795e-28 
        45.7133     3.87432e-28 
        45.7388     4.07944e-28 
        45.7642     4.29543e-28 
        45.7896     4.52287e-28 
         45.815     4.76231e-28 
        45.8405     5.01445e-28 
         45.866     5.27995e-28 
        45.8915     5.55949e-28 
         45.917     5.85382e-28 
        45.9425     6.16377e-28 
         45.968      6.4901e-28 
        45.9936     6.83373e-28 
        46.0191     7.19553e-28 
        46.0447     7.57649e-28 
        46.0702     7.97765e-28 
        46.0959     8.40002e-28 
        46.1215     8.84475e-28 
        46.1471     9.31303e-28 
        46.1728     9.80611e-28 
        46.1984     1.03253e-27 
        46.2241      1.0872e-27 
        46.2498     1.14476e-27 
        46.2755     1.20537e-27 
        46.3012     1.26919e-27 
        46.3269     1.33638e-27 
        46.3527     1.40714e-27 
        46.3784     1.48164e-27 
        46.4042     1.56008e-27 
          46.43     1.64268e-27 
        46.4558     1.72966e-27 
        46.4816     1.82123e-27 
        46.5074     1.91765e-27 
        46.5333     2.01918e-27 
        46.5591     2.12609e-27 
         46.585     2.23866e-27 
        46.6109     2.35718e-27 
        46.6368     2.48115e-27 
        46.6627     2.60772e-27 
        46.6886     2.74082e-27 
        46.7146     2.88072e-27 
        46.7405     3.02777e-27 
        46.7665     3.18231e-27 
        46.7925     3.34475e-27 
        46.8185     3.51548e-27 
        46.8445      3.6949e-27 
        46.8705     3.88352e-27 
        46.8966     4.08174e-27 
        46.9226      4.2901e-27 
        46.9487     4.50906e-27 
        46.9748     4.73922e-27 
        47.0009     4.98112e-27 
        47.0271     5.23536e-27 
        47.0532      5.5026e-27 
        47.0794     5.78346e-27 
        47.1055     6.07868e-27 
        47.1317     6.38894e-27 
        47.1579     6.71505e-27 
        47.1841     7.05782e-27 
        47.2103     7.41806e-27 
        47.2366     7.79669e-27 
        47.2628     8.19468e-27 
         47.289     8.61297e-27 
        47.3154     9.05256e-27 
        47.3416     9.51467e-27 
        47.3679     1.00003e-26 
        47.3943     1.05107e-26 
        47.4206     1.10473e-26 
        47.4469     1.16111e-26 
        47.4733     1.22038e-26 
        47.4997     1.28267e-26 
        47.5261     1.34814e-26 
        47.5525     1.41695e-26 
        47.5789     1.48928e-26 
        47.6054      1.5653e-26 
        47.6318     1.64519e-26 
        47.6583     1.72917e-26 
        47.6847     1.81743e-26 
        47.7113     1.91019e-26 
        47.7378      2.0077e-26 
        47.7643     2.11019e-26 
        47.7908     2.21789e-26 
        47.8174      2.3311e-26 
         47.844     2.45008e-26 
        47.8706     2.57514e-26 
        47.8971     2.70658e-26 
        47.9238     2.84474e-26 
        47.9505     2.98994e-26 
        47.9771     3.14255e-26 
        48.0037     3.30296e-26 
        48.0304     3.47156e-26 
        48.0571     3.64876e-26 
        48.0838       3.835e-26 
        48.1105     4.03075e-26 
        48.1372     4.23649e-26 
         48.164     4.45273e-26 
        48.1908     4.68001e-26 
        48.2175      4.9189e-26 
        48.2444     5.16996e-26 
        48.2712     5.43385e-26 
         48.298     5.71122e-26 
        48.3248     6.00274e-26 
        48.3517     6.30913e-26 
        48.3785     6.63117e-26 
        48.4054     6.96965e-26 
        48.4323      7.3254e-26 
        48.4592      7.6993e-26 
        48.4862     8.09229e-26 
        48.5131     8.50603e-26 
          48.54      8.9287e-26 
         48.567     9.36748e-26 
         48.594     9.82782e-26 
         48.621     1.03108e-25 
         48.648     1.08175e-25 
        48.6751     1.13491e-25 
        48.7022     1.19068e-25 
        48.7292     1.24919e-25 
        48.7563     1.31058e-25 
        48.7834     1.37499e-25 
        48.8105     1.44256e-25 
        48.8376     1.51345e-25 
        48.8647     1.58782e-25 
        48.8919     1.66587e-25 
         48.919     1.74772e-25 
        48.9463     1.83362e-25 
        48.9735     1.92372e-25 
        49.0007     2.01825e-25 
        49.0279     2.11744e-25 
        49.0551     2.22151e-25 
        49.0824     2.33067e-25 
        49.1097     2.44521e-25 
         49.137     2.56537e-25 
        49.1643     2.69145e-25 
        49.1916      2.8237e-25 
        49.2189     2.96247e-25 
        49.2463     3.10806e-25 
        49.2737      3.2608e-25 
         49.301     3.42105e-25 
        49.3284     3.58916e-25 
        49.3559     3.76554e-25 
        49.3833      3.9506e-25 
        49.4107     4.14473e-25 
        49.4382     4.34843e-25 
        49.4656     4.56212e-25 
        49.4932     4.78631e-25 
        49.5206     5.02153e-25 
        49.5481     5.26829e-25 
        49.5757     5.52719e-25 
        49.6032     5.79882e-25 
        49.6308     6.08379e-25 
        49.6584     6.38277e-25 
         49.686     6.69642e-25 
        49.7136      7.0255e-25 
        49.7412     7.37075e-25 
        49.7688       7.733e-25 
        49.7965     8.11301e-25 
        49.8242     8.51171e-25 
        49.8519     8.92999e-25 
        49.8796     9.36883e-25 
        49.9073     9.82926e-25 
         49.935     1.03123e-24 
        49.9627     1.08191e-24 
        49.9906     1.13507e-24 
        50.0183     1.19086e-24 
        50.0462     1.24938e-24 
        50.0739     1.31078e-24 
        50.1018     1.37519e-24 
        50.1296     1.44277e-24 
        50.1574     1.51368e-24 
        50.1853     1.58806e-24 
        50.2132      1.6661e-24 
        50.2412     1.74797e-24 
         50.269     1.83388e-24 
         50.297     1.92401e-24 
        50.3249     2.01856e-24 
        50.3529     2.11776e-24 
        50.3809     2.22182e-24 
        50.4088     2.33101e-24 
        50.4369     2.44556e-24 
        50.4649     2.56574e-24 
         50.493     2.69183e-24 
         50.521     2.82412e-24 
        50.5491     2.96291e-24 
        50.5771     3.10751e-24 
        50.6053     3.25428e-24 
        50.6334     3.40796e-24 
        50.6616      3.5689e-24 
        50.6897     3.73746e-24 
        50.7179     3.91396e-24 
        50.7461      4.0988e-24 
        50.7742     4.29238e-24 
        50.8025     4.49509e-24 
        50.8307     4.70738e-24 
        50.8589      4.9297e-24 
        50.8872      5.1625e-24 
        50.9155     5.40632e-24 
        50.9438     5.66163e-24 
        50.9721     5.92901e-24 
        51.0004     6.20903e-24 
        51.0288     6.50225e-24 
        51.0571     6.80933e-24 
        51.0855     7.13092e-24 
        51.1139     7.46768e-24 
        51.1423     7.82035e-24 
        51.1707     8.18966e-24 
        51.1991     8.57644e-24 
        51.2276     8.98149e-24 
         51.256     9.40565e-24 
        51.2845     9.84985e-24 
        51.3131      1.0315e-23 
        51.3415     1.08022e-23 
          51.37     1.13123e-23 
        51.3987     1.18465e-23 
        51.4272      1.2406e-23 
        51.4557     1.29919e-23 
        51.4844     1.36055e-23 
        51.5129      1.4248e-23 
        51.5416     1.49209e-23 
        51.5703     1.56255e-23 
        51.5989     1.63635e-23 
        51.6276     1.71363e-23 
        51.6563     1.79456e-23 
         51.685     1.87931e-23 
        51.7137     1.96806e-23 
        51.7424     2.06101e-23 
        51.7712     2.15835e-23 
           51.8     2.26026e-23 
        51.8287     2.36701e-23 
        51.8575     2.47881e-23 
        51.8863     2.59587e-23 
        51.9152     2.71846e-23 
         51.944     2.84684e-23 
        51.9729      2.9813e-23 
        52.0018     3.12209e-23 
        52.0307     3.26953e-23 
        52.0596     3.42395e-23 
        52.0885     3.58564e-23 
        52.1175     3.75497e-23 
        52.1464     3.93231e-23 
        52.1754     4.11802e-23 
        52.2044     4.31251e-23 
        52.2334     4.51618e-23 
        52.2624     4.72946e-23 
        52.2915     4.95279e-23 
        52.3205     5.18671e-23 
        52.3496     5.43167e-23 
        52.3787     5.68818e-23 
        52.4078     5.95681e-23 
        52.4369     6.23813e-23 
        52.4661     6.53272e-23 
        52.4952     6.84124e-23 
        52.5244     7.16434e-23 
        52.5536     7.50269e-23 
        52.5828       7.857e-23 
        52.6121     8.22806e-23 
        52.6413     8.61665e-23 
        52.6705      9.0236e-23 
        52.6997     9.44975e-23 
         52.729     9.89603e-23 
        52.7583     1.03634e-22 
        52.7877     1.08528e-22 
         52.817     1.13563e-22 
        52.8463     1.18692e-22 
        52.8758     1.24062e-22 
        52.9051     1.29677e-22 
        52.9345     1.35545e-22 
         52.964     1.41678e-22 
        52.9934     1.48088e-22 
        53.0228     1.54789e-22 
        53.0523     1.61793e-22 
        53.0818     1.69114e-22 
        53.1113     1.76767e-22 
        53.1407     1.84765e-22 
        53.1703     1.93125e-22 
        53.1999     2.01863e-22 
        53.2294     2.10998e-22 
         53.259     2.20546e-22 
        53.2886     2.30526e-22 
        53.3182     2.40956e-22 
        53.3478     2.51859e-22 
        53.3775     2.63257e-22 
        53.4071     2.75168e-22 
        53.4368     2.87619e-22 
        53.4665     3.00634e-22 
        53.4963     3.14236e-22 
         53.526     3.28456e-22 
        53.5557     3.43318e-22 
        53.5855     3.58854e-22 
        53.6153     3.75091e-22 
         53.645     3.92064e-22 
        53.6749     4.09804e-22 
        53.7047     4.28348e-22 
        53.7345      4.4773e-22 
        53.7644     4.67989e-22 
        53.7942     4.89166e-22 
        53.8242     5.11299e-22 
         53.854     5.34437e-22 
        53.8839      5.5862e-22 
        53.9139     5.83896e-22 
        53.9439     6.10317e-22 
        53.9739     6.37932e-22 
        54.0038       6.668e-22 
        54.0339      6.9697e-22 
        54.0639     7.28508e-22 
         54.094     7.61472e-22 
         54.124     7.95928e-22 
         54.154     8.31945e-22 
        54.1842     8.69587e-22 
        54.2143     9.08938e-22 
        54.2444     9.50067e-22 
        54.2745     9.93056e-22 
        54.3047     1.03799e-21 
        54.3349     1.08496e-21 
        54.3651     1.13405e-21 
        54.3953     1.18537e-21 
        54.4255     1.23901e-21 
        54.4557     1.29507e-21 
         54.486     1.35366e-21 
        54.5163     1.41492e-21 
        54.5466     1.47895e-21 
        54.5769     1.54587e-21 
        54.6072     1.61581e-21 
        54.6376     1.68893e-21 
        54.6679     1.76536e-21 
        54.6984     1.84523e-21 
        54.7287     1.92873e-21 
        54.7591       2.016e-21 
        54.7895     2.10723e-21 
          54.82     2.20258e-21 
        54.8505     2.30224e-21 
         54.881     2.40641e-21 
        54.9115      2.5153e-21 
         54.942     2.62912e-21 
        54.9725     2.74809e-21 
         55.003     2.87243e-21 
        55.0336      3.0024e-21 
        55.0642     3.13827e-21 
        55.0948     3.28027e-21 
        55.1254     3.42869e-21 
        55.1561     3.58384e-21 
        55.1867     3.74601e-21 
        55.2174     3.91551e-21 
         55.248     4.09081e-21 
        55.2788     4.26763e-21 
        55.3095     4.45218e-21 
        55.3402      4.6447e-21 
         55.371     4.84555e-21 
        55.4017      5.0551e-21 
        55.4325     5.27369e-21 
        55.4633     5.50174e-21 
        55.4941     5.73967e-21 
         55.525     5.98784e-21 
        55.5558      6.2468e-21 
        55.5867     6.51693e-21 
        55.6176     6.79872e-21 
        55.6485     7.09273e-21 
        55.6794     7.39945e-21 
        55.7104     7.71942e-21 
        55.7413     8.05323e-21 
        55.7723     8.40147e-21 
        55.8033     8.76479e-21 
        55.8343     9.14378e-21 
        55.8653     9.53919e-21 
        55.8964     9.95169e-21 
        55.9275      1.0382e-20 
        55.9586      1.0831e-20 
        55.9896     1.12994e-20 
        56.0208     1.17879e-20 
        56.0519     1.22977e-20 
         56.083     1.28295e-20 
        56.1142     1.33843e-20 
        56.1453      1.3963e-20 
        56.1766     1.45668e-20 
        56.2077     1.51969e-20 
        56.2391     1.58539e-20 
        56.2703     1.65395e-20 
        56.3016     1.72547e-20 
        56.3328      1.8001e-20 
        56.3642     1.87793e-20 
        56.3954     1.95914e-20 
        56.4268     2.04385e-20 
        56.4582     2.13223e-20 
        56.4896     2.22444e-20 
        56.5209     2.32063e-20 
        56.5523     2.42098e-20 
        56.5837     2.52568e-20 
        56.6152     2.63489e-20 
        56.6467     2.74883e-20 
        56.6782      2.8677e-20 
        56.7096     2.99172e-20 
        56.7412     3.12109e-20 
        56.7726     3.25605e-20 
        56.8043     3.39685e-20 
        56.8358     3.54374e-20 
        56.8674     3.69697e-20 
         56.899     3.85685e-20 
        56.9306     4.02364e-20 
        56.9623     4.19763e-20 
        56.9939     4.37915e-20 
        57.0256     4.56851e-20 
        57.0572     4.76607e-20 
         57.089     4.97217e-20 
        57.1207     5.18717e-20 
        57.1524     5.41149e-20 
        57.1841     5.64551e-20 
         57.216     5.88962e-20 
        57.2478      6.1443e-20 
        57.2795     6.41002e-20 
        57.3114     6.68721e-20 
        57.3433     6.97636e-20 
        57.3751     7.27805e-20 
         57.407     7.59278e-20 
        57.4389     7.92112e-20 
        57.4708     8.26365e-20 
        57.5028     8.62099e-20 
        57.5347     8.99381e-20 
        57.5667      9.3827e-20 
        57.5987     9.78845e-20 
        57.6307     1.02117e-19 
        57.6627     1.06533e-19 
        57.6948      1.1114e-19 
        57.7268     1.15947e-19 
        57.7589     1.20959e-19 
         57.791     1.26191e-19 
        57.8231     1.31647e-19 
        57.8552      1.3734e-19 
        57.8874     1.43279e-19 
        57.9196     1.49416e-19 
        57.9517     1.55577e-19 
        57.9839     1.61989e-19 
        58.0162     1.68664e-19 
        58.0485     1.75615e-19 
        58.0806     1.82853e-19 
        58.1129     1.90388e-19 
        58.1453     1.98234e-19 
        58.1776     2.06403e-19 
        58.2099      2.1491e-19 
        58.2422     2.23766e-19 
        58.2746     2.32988e-19 
         58.307     2.42589e-19 
        58.3393     2.52586e-19 
        58.3718     2.62996e-19 
        58.4042     2.73834e-19 
        58.4367     2.85119e-19 
        58.4692     2.96869e-19 
        58.5017     3.09103e-19 
        58.5341     3.21842e-19 
        58.5667     3.35105e-19 
        58.5992     3.48916e-19 
        58.6318     3.63295e-19 
        58.6644     3.78266e-19 
         58.697     3.93855e-19 
        58.7296     4.10086e-19 
        58.7622     4.26986e-19 
        58.7949     4.44582e-19 
        58.8276     4.62904e-19 
        58.8603     4.81981e-19 
         58.893     5.01844e-19 
        58.9256     5.22527e-19 
        58.9584      5.4406e-19 
        58.9912     5.66482e-19 
         59.024     5.89825e-19 
        59.0568     6.14133e-19 
        59.0896     6.39442e-19 
        59.1224     6.65796e-19 
        59.1553     6.93232e-19 
        59.1882     7.21799e-19 
        59.2211     7.51546e-19 
         59.254     7.82519e-19 
        59.2869     8.14767e-19 
        59.3199     8.48344e-19 
        59.3529     8.83305e-19 
        59.3858     9.19708e-19 
        59.4187     9.57612e-19 
        59.4518     9.97073e-19 
        59.4849     1.03816e-18 
        59.5179     1.08095e-18 
        59.5509      1.1255e-18 
        59.5841     1.17187e-18 
        59.6171     1.22017e-18 
        59.6503     1.27046e-18 
        59.6835     1.32282e-18 
        59.7166     1.37733e-18 
        59.7498     1.43409e-18 
         59.783      1.4932e-18 
        59.8162     1.55472e-18 
        59.8494      1.6188e-18 
        59.8827     1.68552e-18 
        59.9161     1.75497e-18 
        59.9493      1.8273e-18 
        59.9826      1.9026e-18 
         60.016     1.98101e-18 
        60.0493     2.06265e-18 
        60.0826     2.14766e-18 
        60.1161     2.23616e-18 
        60.1495     2.32831e-18 
        60.1829     2.42427e-18 
        60.2163     2.52417e-18 
        60.2499     2.62818e-18 
        60.2833      2.7365e-18 
        60.3168     2.84928e-18 
        60.3503      2.9667e-18 
        60.3838     3.08896e-18 
        60.4174     3.21626e-18 
        60.4509     3.34881e-18 
        60.4846     3.48681e-18 
        60.5182     3.63051e-18 
        60.5518     3.78013e-18 
        60.5854     3.93591e-18 
        60.6191     4.09811e-18 
        60.6528     4.26699e-18 
        60.6865     4.44285e-18 
        60.7203     4.62593e-18 
         60.754     4.81657e-18 
        60.7878     5.01507e-18 
        60.8215     5.22175e-18 
        60.8554     5.43637e-18 
        60.8891     5.65074e-18 
         60.923     5.87197e-18 
        60.9568     6.10188e-18 
        60.9907     6.34078e-18 
        61.0246     6.58904e-18 
        61.0585       6.847e-18 
        61.0925     7.11507e-18 
        61.1264     7.39365e-18 
        61.1604     7.68311e-18 
        61.1944     7.98392e-18 
        61.2284     8.29652e-18 
        61.2624     8.62134e-18 
        61.2965     8.95887e-18 
        61.3305     9.30966e-18 
        61.3646     9.67413e-18 
        61.3987     1.00528e-17 
        61.4328     1.04465e-17 
        61.4669     1.08555e-17 
        61.5011     1.12806e-17 
        61.5353     1.17222e-17 
        61.5694     1.21812e-17 
        61.6037      1.2658e-17 
        61.6379     1.31536e-17 
        61.6721     1.36686e-17 
        61.7064     1.42038e-17 
        61.7407     1.47598e-17 
         61.775     1.53377e-17 
        61.8093     1.59382e-17 
        61.8437     1.65622e-17 
        61.8781     1.72106e-17 
        61.9124     1.78845e-17 
        61.9469     1.85847e-17 
        61.9813     1.93123e-17 
        62.0157     2.00685e-17 
        62.0502     2.08542e-17 
        62.0846     2.16707e-17 
        62.1191     2.25192e-17 
        62.1536     2.34008e-17 
        62.1882      2.4317e-17 
        62.2228      2.5269e-17 
        62.2574     2.62583e-17 
        62.2919     2.72864e-17 
        62.3265     2.83548e-17 
        62.3613     2.94647e-17 
        62.3959     3.06184e-17 
        62.4305     3.18172e-17 
        62.4652     3.30629e-17 
