# TLUSTY OSTAR2002+BSTAR2006
# teff = 37500 K (value for the effective temperature for the model. Temperatures are given in K)
# logg = 4.75 log(cm/s2) (value for Log(G) for the model.)
# z = 0.5  (Z/Z0)
#
# column 1: WAVELENGTH (ANGSTROM), Wavelength in Angstrom
# column 2: FLUX (ERG/CM2/S/A), Flux in erg/cm2/s/A
        44.8829     5.18668e-32 
        44.9078     5.39948e-32 
        44.9328     5.69918e-32 
        44.9578     6.01552e-32 
        44.9827     6.34943e-32 
        45.0077     6.70188e-32 
        45.0327     7.07389e-32 
        45.0578     7.46653e-32 
        45.0828     7.88099e-32 
        45.1079     8.31844e-32 
        45.1329     8.78016e-32 
         45.158     9.26753e-32 
        45.1831     9.78196e-32 
        45.2082     1.03249e-31 
        45.2333      1.0898e-31 
        45.2585      1.1503e-31 
        45.2836     1.21415e-31 
        45.3088     1.28154e-31 
        45.3339     1.35268e-31 
        45.3592     1.42776e-31 
        45.3844     1.50701e-31 
        45.4096     1.59066e-31 
        45.4348     1.67896e-31 
        45.4601     1.77215e-31 
        45.4853     1.87053e-31 
        45.5106     1.97435e-31 
        45.5359     2.08394e-31 
        45.5612     2.19961e-31 
        45.5865     2.32171e-31 
        45.6118     2.45058e-31 
        45.6372     2.58662e-31 
        45.6626     2.73018e-31 
         45.688     2.88173e-31 
        45.7133     3.04169e-31 
        45.7388     3.21051e-31 
        45.7642     3.38873e-31 
        45.7896     3.57684e-31 
         45.815     3.77537e-31 
        45.8405     3.98494e-31 
         45.866     4.20613e-31 
        45.8915      4.4396e-31 
         45.917     4.68602e-31 
        45.9425     4.94614e-31 
         45.968     5.22068e-31 
        45.9936     5.51048e-31 
        46.0191     5.81634e-31 
        46.0447      6.1392e-31 
        46.0702     6.47997e-31 
        46.0959     6.83964e-31 
        46.1215      7.2193e-31 
        46.1471     7.62003e-31 
        46.1728       8.043e-31 
        46.1984     8.48947e-31 
        46.2241     8.96068e-31 
        46.2498     9.45807e-31 
        46.2755     9.98307e-31 
        46.3012     1.05372e-30 
        46.3269     1.11221e-30 
        46.3527     1.17394e-30 
        46.3784     1.23911e-30 
        46.4042     1.30789e-30 
          46.43     1.38049e-30 
        46.4558     1.45712e-30 
        46.4816     1.53799e-30 
        46.5074     1.62336e-30 
        46.5333     1.71347e-30 
        46.5591     1.80858e-30 
         46.585     1.90898e-30 
        46.6109     2.01494e-30 
        46.6368     2.12596e-30 
        46.6627     2.23932e-30 
        46.6886     2.35879e-30 
        46.7146     2.48463e-30 
        46.7405     2.61719e-30 
        46.7665     2.75682e-30 
        46.7925      2.9039e-30 
        46.8185     3.05882e-30 
        46.8445     3.22202e-30 
        46.8705     3.39391e-30 
        46.8966     3.57499e-30 
        46.9226     3.76572e-30 
        46.9487     3.96662e-30 
        46.9748     4.17823e-30 
        47.0009     4.40115e-30 
        47.0271     4.63594e-30 
        47.0532     4.88328e-30 
        47.0794      5.1438e-30 
        47.1055     5.41824e-30 
        47.1317      5.7073e-30 
        47.1579     6.01179e-30 
        47.1841     6.33253e-30 
        47.2103     6.67036e-30 
        47.2366     7.02622e-30 
        47.2628      7.4011e-30 
         47.289     7.79596e-30 
        47.3154     8.21185e-30 
        47.3416     8.64999e-30 
        47.3679     9.11147e-30 
        47.3943     9.59754e-30 
        47.4206     1.01096e-29 
        47.4469      1.0649e-29 
        47.4733     1.12171e-29 
        47.4997     1.18155e-29 
        47.5261     1.24459e-29 
        47.5525     1.31099e-29 
        47.5789     1.38093e-29 
        47.6054      1.4546e-29 
        47.6318     1.53221e-29 
        47.6583     1.61395e-29 
        47.6847     1.70007e-29 
        47.7113     1.79075e-29 
        47.7378      1.8863e-29 
        47.7643     1.98694e-29 
        47.7908     2.09293e-29 
        47.8174     2.20459e-29 
         47.844     2.32222e-29 
        47.8706     2.44611e-29 
        47.8971     2.57661e-29 
        47.9238     2.71407e-29 
        47.9505     2.85886e-29 
        47.9771     3.01139e-29 
        48.0037     3.17205e-29 
        48.0304     3.34127e-29 
        48.0571     3.51955e-29 
        48.0838      3.7073e-29 
        48.1105     3.90509e-29 
        48.1372     4.11345e-29 
         48.164     4.33289e-29 
        48.1908     4.56406e-29 
        48.2175     4.80756e-29 
        48.2444     5.06404e-29 
        48.2712     5.33421e-29 
         48.298     5.61879e-29 
        48.3248     5.91857e-29 
        48.3517     6.23433e-29 
        48.3785     6.56693e-29 
        48.4054     6.91729e-29 
        48.4323     7.28634e-29 
        48.4592     7.67506e-29 
        48.4862     8.08452e-29 
        48.5131     8.51656e-29 
          48.54     8.95767e-29 
         48.567     9.41589e-29 
         48.594     9.89755e-29 
         48.621     1.04039e-28 
         48.648     1.09361e-28 
        48.6751     1.14955e-28 
        48.7022     1.20835e-28 
        48.7292     1.27016e-28 
        48.7563     1.33514e-28 
        48.7834     1.40344e-28 
        48.8105     1.47523e-28 
        48.8376      1.5507e-28 
        48.8647     1.63003e-28 
        48.8919      1.7134e-28 
         48.919     1.80106e-28 
        48.9463     1.89318e-28 
        48.9735     1.99002e-28 
        49.0007     2.09182e-28 
        49.0279     2.19883e-28 
        49.0551     2.31132e-28 
        49.0824     2.42955e-28 
        49.1097     2.55384e-28 
         49.137     2.68447e-28 
        49.1643     2.82179e-28 
        49.1916     2.96614e-28 
        49.2189     3.11788e-28 
        49.2463     3.27737e-28 
        49.2737     3.44501e-28 
         49.301     3.62125e-28 
        49.3284     3.80648e-28 
        49.3559      4.0012e-28 
        49.3833     4.20589e-28 
        49.4107     4.42103e-28 
        49.4382     4.64719e-28 
        49.4656     4.88491e-28 
        49.4932     5.13479e-28 
        49.5206     5.39746e-28 
        49.5481     5.67358e-28 
        49.5757     5.96381e-28 
        49.6032     6.26889e-28 
        49.6308     6.58955e-28 
        49.6584     6.92666e-28 
         49.686     7.28097e-28 
        49.7136     7.65342e-28 
        49.7412     8.04493e-28 
        49.7688     8.45648e-28 
        49.7965     8.88905e-28 
        49.8242     9.34378e-28 
        49.8519     9.82172e-28 
        49.8796     1.03242e-27 
        49.9073     1.08523e-27 
         49.935     1.14074e-27 
        49.9627      1.1991e-27 
        49.9906     1.26044e-27 
        50.0183     1.32491e-27 
        50.0462     1.39269e-27 
        50.0739     1.46393e-27 
        50.1018     1.53882e-27 
        50.1296     1.61754e-27 
        50.1574     1.70028e-27 
        50.1853     1.78726e-27 
        50.2132     1.87869e-27 
        50.2412     1.97479e-27 
         50.269     2.07581e-27 
         50.297     2.18199e-27 
        50.3249     2.29362e-27 
        50.3529     2.41093e-27 
        50.3809     2.53427e-27 
        50.4088     2.66391e-27 
        50.4369     2.80018e-27 
        50.4649     2.94342e-27 
         50.493     3.09399e-27 
         50.521     3.25227e-27 
        50.5491     3.41863e-27 
        50.5771     3.59214e-27 
        50.6053     3.76794e-27 
        50.6334     3.95232e-27 
        50.6616      4.1457e-27 
        50.6897     4.34856e-27 
        50.7179     4.56132e-27 
        50.7461     4.78453e-27 
        50.7742     5.01864e-27 
        50.8025      5.2642e-27 
        50.8307     5.52177e-27 
        50.8589     5.79196e-27 
        50.8872     6.07535e-27 
        50.9155     6.37264e-27 
        50.9438     6.68445e-27 
        50.9721     7.01152e-27 
        51.0004     7.35462e-27 
        51.0288     7.71447e-27 
        51.0571     8.09194e-27 
        51.0855      8.4879e-27 
        51.1139     8.90321e-27 
        51.1423     9.33883e-27 
        51.1707     9.79579e-27 
        51.1991     1.02751e-26 
        51.2276     1.07779e-26 
         51.256     1.13052e-26 
        51.2845     1.18584e-26 
        51.3131     1.24386e-26 
        51.3415     1.30473e-26 
          51.37     1.36857e-26 
        51.3987     1.43554e-26 
        51.4272     1.50578e-26 
        51.4557     1.57946e-26 
        51.4844     1.65674e-26 
        51.5129      1.7378e-26 
        51.5416     1.82283e-26 
        51.5703     1.91203e-26 
        51.5989     2.00559e-26 
        51.6276     2.10372e-26 
        51.6563     2.20666e-26 
         51.685     2.31463e-26 
        51.7137     2.42789e-26 
        51.7424     2.54668e-26 
        51.7712      2.6713e-26 
           51.8     2.80199e-26 
        51.8287      2.9391e-26 
        51.8575     3.08292e-26 
        51.8863     3.23377e-26 
        51.9152     3.39199e-26 
         51.944     3.55796e-26 
        51.9729     3.73206e-26 
        52.0018     3.91467e-26 
        52.0307     4.10622e-26 
        52.0596     4.30714e-26 
        52.0885     4.51789e-26 
        52.1175     4.73894e-26 
        52.1464     4.97083e-26 
        52.1754     5.21405e-26 
        52.2044     5.46918e-26 
        52.2334      5.7368e-26 
        52.2624     6.01749e-26 
        52.2915     6.31194e-26 
        52.3205     6.62079e-26 
        52.3496     6.94476e-26 
        52.3787     7.28457e-26 
        52.4078       7.641e-26 
        52.4369     8.01486e-26 
        52.4661     8.40703e-26 
        52.4952     8.81839e-26 
        52.5244      9.2499e-26 
        52.5536      9.7025e-26 
        52.5828     1.01772e-25 
        52.6121     1.06752e-25 
        52.6413     1.11976e-25 
        52.6705     1.17455e-25 
        52.6997     1.23202e-25 
         52.729      1.2923e-25 
        52.7583     1.35554e-25 
        52.7877     1.42186e-25 
         52.817     1.49009e-25 
        52.8463     1.55953e-25 
        52.8758     1.63234e-25 
        52.9051     1.70856e-25 
        52.9345     1.78834e-25 
         52.964     1.87183e-25 
        52.9934     1.95923e-25 
        53.0228     2.05071e-25 
        53.0523     2.14647e-25 
        53.0818     2.24669e-25 
        53.1113     2.35159e-25 
        53.1407     2.46139e-25 
        53.1703     2.57632e-25 
        53.1999     2.69661e-25 
        53.2294     2.82253e-25 
         53.259     2.95432e-25 
        53.2886     3.09226e-25 
        53.3182     3.23664e-25 
        53.3478     3.38776e-25 
        53.3775     3.54595e-25 
        53.4071     3.71152e-25 
        53.4368     3.88481e-25 
        53.4665     4.06621e-25 
        53.4963     4.25607e-25 
         53.526     4.45479e-25 
        53.5557      4.6628e-25 
        53.5855     4.88051e-25 
        53.6153     5.10838e-25 
         53.645     5.34692e-25 
        53.6749     5.59656e-25 
        53.7047     5.85788e-25 
        53.7345      6.1314e-25 
        53.7644     6.41768e-25 
        53.7942     6.71735e-25 
        53.8242     7.03099e-25 
         53.854     7.35928e-25 
        53.8839     7.70291e-25 
        53.9139     8.06258e-25 
        53.9439     8.43902e-25 
        53.9739     8.83305e-25 
        54.0038      9.2455e-25 
        54.0339     9.67717e-25 
        54.0639      1.0129e-24 
         54.094      1.0602e-24 
         54.124      1.1097e-24 
         54.154     1.16152e-24 
        54.1842     1.21575e-24 
        54.2143     1.27251e-24 
        54.2444     1.33192e-24 
        54.2745     1.39412e-24 
        54.3047     1.45922e-24 
        54.3349     1.52735e-24 
        54.3651     1.59866e-24 
        54.3953     1.67331e-24 
        54.4255     1.75144e-24 
        54.4557     1.83321e-24 
         54.486     1.91881e-24 
        54.5163      2.0084e-24 
        54.5466     2.10219e-24 
        54.5769     2.20034e-24 
        54.6072     2.30307e-24 
        54.6376     2.41061e-24 
        54.6679     2.52317e-24 
        54.6984     2.64098e-24 
        54.7287     2.76429e-24 
        54.7591     2.89337e-24 
        54.7895     3.02846e-24 
          54.82     3.16987e-24 
        54.8505     3.31787e-24 
         54.881     3.47278e-24 
        54.9115     3.63494e-24 
         54.942     3.80467e-24 
        54.9725     3.98232e-24 
         55.003     4.16826e-24 
        55.0336     4.36288e-24 
        55.0642     4.56659e-24 
        55.0948     4.77981e-24 
        55.1254     5.00299e-24 
        55.1561      5.2366e-24 
        55.1867     5.48109e-24 
        55.2174     5.73701e-24 
         55.248      6.0018e-24 
        55.2788     6.26847e-24 
        55.3095     6.54711e-24 
        55.3402     6.83812e-24 
         55.371     7.14206e-24 
        55.4017     7.45954e-24 
        55.4325     7.79109e-24 
        55.4633     8.13741e-24 
        55.4941     8.49911e-24 
         55.525     8.87687e-24 
        55.5558     9.27146e-24 
        55.5867     9.68356e-24 
        55.6176      1.0114e-23 
        55.6485     1.05635e-23 
        55.6794     1.10331e-23 
        55.7104     1.15235e-23 
        55.7413     1.20357e-23 
        55.7723     1.25706e-23 
        55.8033     1.31294e-23 
        55.8343      1.3713e-23 
        55.8653     1.43226e-23 
        55.8964     1.49592e-23 
        55.9275     1.56241e-23 
        55.9586     1.63186e-23 
        55.9896     1.70439e-23 
        56.0208     1.78015e-23 
        56.0519     1.85928e-23 
         56.083     1.94192e-23 
        56.1142     2.02824e-23 
        56.1453     2.11839e-23 
        56.1766     2.21254e-23 
        56.2077      2.3109e-23 
        56.2391     2.41361e-23 
        56.2703     2.52089e-23 
        56.3016     2.63294e-23 
        56.3328     2.74998e-23 
        56.3642     2.87221e-23 
        56.3954     2.99988e-23 
        56.4268     3.13321e-23 
        56.4582     3.27248e-23 
        56.4896     3.41794e-23 
        56.5209     3.56987e-23 
        56.5523     3.72855e-23 
        56.5837     3.89428e-23 
        56.6152     4.06737e-23 
        56.6467     4.24815e-23 
        56.6782     4.43698e-23 
        56.7096     4.63422e-23 
        56.7412      4.8402e-23 
        56.7726     5.05534e-23 
        56.8043     5.28003e-23 
        56.8358     5.51473e-23 
        56.8674     5.75986e-23 
         56.899     6.01587e-23 
        56.9306     6.28329e-23 
        56.9623     6.56256e-23 
        56.9939     6.85427e-23 
        57.0256     7.15893e-23 
        57.0572     7.47714e-23 
         57.089     7.80949e-23 
        57.1207     8.15661e-23 
        57.1524     8.51918e-23 
        57.1841     8.89786e-23 
         57.216     9.29333e-23 
        57.2478     9.70641e-23 
        57.2795     1.01379e-22 
        57.3114     1.05885e-22 
        57.3433     1.10591e-22 
        57.3751     1.15507e-22 
         57.407     1.20642e-22 
        57.4389     1.26004e-22 
        57.4708     1.31604e-22 
        57.5028     1.37454e-22 
        57.5347     1.43564e-22 
        57.5667     1.49945e-22 
        57.5987      1.5661e-22 
        57.6307     1.63571e-22 
        57.6627     1.70841e-22 
        57.6948     1.78435e-22 
        57.7268     1.86366e-22 
        57.7589      1.9465e-22 
         57.791     2.03302e-22 
        57.8231      2.1234e-22 
        57.8552     2.21777e-22 
        57.8874     2.31635e-22 
        57.9196     2.41824e-22 
        57.9517      2.5204e-22 
        57.9839      2.6268e-22 
        58.0162     2.73767e-22 
        58.0485     2.85324e-22 
        58.0806     2.97369e-22 
        58.1129     3.09921e-22 
        58.1453     3.23003e-22 
        58.1776     3.36638e-22 
        58.2099     3.50849e-22 
        58.2422     3.65659e-22 
        58.2746     3.81095e-22 
         58.307     3.97181e-22 
        58.3393     4.13948e-22 
        58.3718     4.31421e-22 
        58.4042     4.49633e-22 
        58.4367     4.68613e-22 
        58.4692     4.88394e-22 
        58.5017      5.0901e-22 
        58.5341     5.30498e-22 
        58.5667     5.52891e-22 
        58.5992     5.76231e-22 
        58.6318     6.00555e-22 
        58.6644     6.25906e-22 
         58.697     6.52326e-22 
        58.7296     6.79863e-22 
        58.7622     7.08562e-22 
        58.7949      7.3847e-22 
        58.8276     7.69644e-22 
        58.8603     8.02133e-22 
         58.893     8.35992e-22 
        58.9256     8.71285e-22 
        58.9584     9.08063e-22 
        58.9912     9.46395e-22 
         59.024     9.86343e-22 
        59.0568     1.02798e-21 
        59.0896     1.07137e-21 
        59.1224      1.1166e-21 
        59.1553     1.16373e-21 
        59.1882     1.21285e-21 
        59.2211     1.26405e-21 
         59.254     1.31742e-21 
        59.2869     1.37303e-21 
        59.3199     1.43099e-21 
        59.3529     1.49139e-21 
        59.3858     1.55434e-21 
        59.4187     1.61996e-21 
        59.4518     1.68834e-21 
        59.4849     1.75961e-21 
        59.5179     1.83389e-21 
        59.5509     1.91131e-21 
        59.5841     1.99198e-21 
        59.6171     2.07608e-21 
        59.6503     2.16371e-21 
        59.6835     2.25504e-21 
        59.7166     2.35024e-21 
        59.7498     2.44944e-21 
         59.783     2.55285e-21 
        59.8162      2.6606e-21 
        59.8494     2.77291e-21 
        59.8827     2.88997e-21 
        59.9161     3.01196e-21 
        59.9493     3.13911e-21 
        59.9826     3.27161e-21 
         60.016     3.40971e-21 
        60.0493     3.55365e-21 
        60.0826     3.70366e-21 
        60.1161     3.85999e-21 
        60.1495     4.02293e-21 
        60.1829     4.19276e-21 
        60.2163     4.36974e-21 
        60.2499      4.5542e-21 
        60.2833     4.74644e-21 
        60.3168     4.94681e-21 
        60.3503     5.15562e-21 
        60.3838     5.37326e-21 
        60.4174     5.60007e-21 
        60.4509     5.83648e-21 
        60.4846     6.08283e-21 
        60.5182     6.33962e-21 
        60.5518     6.60723e-21 
        60.5854     6.88614e-21 
        60.6191     7.17681e-21 
        60.6528     7.47976e-21 
        60.6865     7.79552e-21 
        60.7203     8.12456e-21 
         60.754     8.46753e-21 
        60.7878     8.82497e-21 
        60.8215     9.19749e-21 
        60.8554     9.58463e-21 
        60.8891      9.9709e-21 
         60.923     1.03697e-20 
        60.9568     1.07844e-20 
        60.9907     1.12157e-20 
        61.0246     1.16643e-20 
        61.0585     1.21307e-20 
        61.0925     1.26158e-20 
        61.1264     1.31204e-20 
        61.1604     1.36451e-20 
        61.1944     1.41908e-20 
        61.2284     1.47584e-20 
        61.2624     1.53486e-20 
        61.2965     1.59626e-20 
        61.3305      1.6601e-20 
        61.3646     1.72648e-20 
        61.3987     1.79553e-20 
        61.4328     1.86735e-20 
        61.4669     1.94203e-20 
        61.5011      2.0197e-20 
        61.5353     2.10047e-20 
        61.5694     2.18448e-20 
        61.6037     2.27184e-20 
        61.6379     2.36271e-20 
        61.6721      2.4572e-20 
        61.7064     2.55547e-20 
        61.7407     2.65767e-20 
         61.775     2.76396e-20 
        61.8093      2.8745e-20 
        61.8437     2.98946e-20 
        61.8781     3.10902e-20 
        61.9124     3.23336e-20 
        61.9469     3.36268e-20 
        61.9813     3.49716e-20 
        62.0157     3.63704e-20 
        62.0502     3.78248e-20 
        62.0846     3.93377e-20 
        62.1191      4.0911e-20 
        62.1536     4.25471e-20 
        62.1882     4.42488e-20 
        62.2228     4.60184e-20 
        62.2574     4.78587e-20 
        62.2919     4.97729e-20 
        62.3265     5.17635e-20 
        62.3613     5.38335e-20 
        62.3959     5.59866e-20 
        62.4305     5.82258e-20 
        62.4652     6.05545e-20 
