# TLUSTY OSTAR2002+BSTAR2006
# teff = 37500 K (value for the effective temperature for the model. Temperatures are given in K)
# logg = 4.25 log(cm/s2) (value for Log(G) for the model.)
# z = 0.5  (Z/Z0)
#
# column 1: WAVELENGTH (ANGSTROM), Wavelength in Angstrom
# column 2: FLUX (ERG/CM2/S/A), Flux in erg/cm2/s/A
        44.8829     2.07651e-31 
        44.9078     2.16185e-31 
        44.9328     2.28206e-31 
        44.9578     2.40893e-31 
        44.9827      2.5429e-31 
        45.0077     2.68428e-31 
        45.0327     2.83354e-31 
        45.0578      2.9911e-31 
        45.0828     3.15743e-31 
        45.1079     3.33299e-31 
        45.1329     3.51832e-31 
         45.158     3.71395e-31 
        45.1831     3.92047e-31 
        45.2082     4.13846e-31 
        45.2333     4.36858e-31 
        45.2585      4.6115e-31 
        45.2836     4.86792e-31 
        45.3088     5.13859e-31 
        45.3339     5.42433e-31 
        45.3592     5.72593e-31 
        45.3844     6.04431e-31 
        45.4096     6.38042e-31 
        45.4348      6.7352e-31 
        45.4601      7.1097e-31 
        45.4853     7.50503e-31 
        45.5106     7.92236e-31 
        45.5359     8.36287e-31 
        45.5612     8.82786e-31 
        45.5865     9.31876e-31 
        45.6118     9.83692e-31 
        45.6372     1.03839e-30 
        45.6626     1.09613e-30 
         45.688     1.15708e-30 
        45.7133     1.22142e-30 
        45.7388     1.28933e-30 
        45.7642     1.36102e-30 
        45.7896     1.43671e-30 
         45.815     1.51659e-30 
        45.8405     1.60092e-30 
         45.866     1.68994e-30 
        45.8915     1.78391e-30 
         45.917     1.88311e-30 
        45.9425     1.98781e-30 
         45.968     2.09834e-30 
        45.9936     2.21501e-30 
        46.0191     2.33818e-30 
        46.0447      2.4682e-30 
        46.0702     2.60545e-30 
        46.0959     2.75031e-30 
        46.1215     2.90325e-30 
        46.1471     3.06468e-30 
        46.1728     3.23508e-30 
        46.1984     3.41498e-30 
        46.2241     3.60487e-30 
        46.2498     3.80531e-30 
        46.2755     4.01691e-30 
        46.3012     4.24026e-30 
        46.3269     4.47604e-30 
        46.3527     4.72492e-30 
        46.3784     4.98765e-30 
        46.4042     5.26499e-30 
          46.43     5.55774e-30 
        46.4558     5.86679e-30 
        46.4816       6.193e-30 
        46.5074     6.53736e-30 
        46.5333     6.90088e-30 
        46.5591     7.28458e-30 
         46.585     7.68966e-30 
        46.6109     8.11722e-30 
        46.6368     8.56514e-30 
        46.6627     9.02212e-30 
        46.6886     9.50371e-30 
        46.7146      1.0011e-29 
        46.7405     1.05454e-29 
        46.7665     1.11083e-29 
        46.7925     1.17012e-29 
        46.8185     1.23258e-29 
        46.8445     1.29837e-29 
        46.8705     1.36768e-29 
        46.8966     1.44068e-29 
        46.9226     1.51759e-29 
        46.9487     1.59859e-29 
        46.9748     1.68392e-29 
        47.0009      1.7738e-29 
        47.0271     1.86849e-29 
        47.0532     1.96822e-29 
        47.0794     2.07328e-29 
        47.1055     2.18395e-29 
        47.1317     2.30053e-29 
        47.1579     2.42333e-29 
        47.1841     2.55268e-29 
        47.2103     2.68894e-29 
        47.2366     2.83247e-29 
        47.2628     2.98366e-29 
         47.289     3.14294e-29 
        47.3154     3.31068e-29 
        47.3416     3.48741e-29 
        47.3679     3.67356e-29 
        47.3943     3.86965e-29 
        47.4206     4.07621e-29 
        47.4469     4.29379e-29 
        47.4733     4.52298e-29 
        47.4997      4.7644e-29 
        47.5261     5.01873e-29 
        47.5525     5.28661e-29 
        47.5789     5.56881e-29 
        47.6054     5.86607e-29 
        47.6318     6.17917e-29 
        47.6583     6.50903e-29 
        47.6847     6.85646e-29 
        47.7113     7.22244e-29 
        47.7378     7.60796e-29 
        47.7643     8.01407e-29 
        47.7908     8.44184e-29 
        47.8174     8.89248e-29 
         47.844     9.36712e-29 
        47.8706     9.86712e-29 
        47.8971     1.03938e-28 
        47.9238     1.09486e-28 
        47.9505      1.1533e-28 
        47.9771     1.21486e-28 
        48.0037     1.27971e-28 
        48.0304     1.34802e-28 
        48.0571     1.41998e-28 
        48.0838     1.49577e-28 
        48.1105     1.57562e-28 
        48.1372     1.65972e-28 
         48.164     1.74832e-28 
        48.1908     1.84163e-28 
        48.2175     1.93994e-28 
        48.2444     2.04349e-28 
        48.2712     2.15257e-28 
         48.298     2.26746e-28 
        48.3248      2.3885e-28 
        48.3517       2.516e-28 
        48.3785      2.6503e-28 
        48.4054     2.79176e-28 
        48.4323     2.94078e-28 
        48.4592     3.09775e-28 
        48.4862     3.26311e-28 
        48.5131     3.43759e-28 
          48.54     3.61564e-28 
         48.567     3.80057e-28 
         48.594     3.99495e-28 
         48.621     4.19927e-28 
         48.648     4.41405e-28 
        48.6751      4.6398e-28 
        48.7022      4.8771e-28 
        48.7292     5.12654e-28 
        48.7563     5.38877e-28 
        48.7834     5.66437e-28 
        48.8105     5.95408e-28 
        48.8376     6.25862e-28 
        48.8647     6.57872e-28 
        48.8919     6.91518e-28 
         48.919     7.26888e-28 
        48.9463     7.64063e-28 
        48.9735     8.03144e-28 
        49.0007     8.44222e-28 
        49.0279     8.87399e-28 
        49.0551     9.32788e-28 
        49.0824     9.80494e-28 
        49.1097     1.03064e-27 
         49.137     1.08336e-27 
        49.1643     1.13876e-27 
        49.1916     1.19701e-27 
        49.2189     1.25823e-27 
        49.2463     1.32259e-27 
        49.2737     1.39023e-27 
         49.301     1.46134e-27 
        49.3284     1.53608e-27 
        49.3559     1.61463e-27 
        49.3833     1.69722e-27 
        49.4107     1.78403e-27 
        49.4382     1.87527e-27 
        49.4656     1.97119e-27 
        49.4932     2.07201e-27 
        49.5206     2.17798e-27 
        49.5481     2.28937e-27 
        49.5757     2.40646e-27 
        49.6032     2.52954e-27 
        49.6308     2.65892e-27 
        49.6584     2.79492e-27 
         49.686     2.93786e-27 
        49.7136     3.08812e-27 
        49.7412     3.24607e-27 
        49.7688     3.41209e-27 
        49.7965     3.58661e-27 
        49.8242     3.77005e-27 
        49.8519     3.96286e-27 
        49.8796     4.16554e-27 
        49.9073     4.37861e-27 
         49.935     4.60256e-27 
        49.9627     4.83796e-27 
        49.9906      5.0854e-27 
        50.0183      5.3455e-27 
        50.0462     5.61889e-27 
        50.0739      5.9063e-27 
        50.1018     6.20837e-27 
        50.1296     6.52591e-27 
        50.1574     6.85969e-27 
        50.1853     7.21052e-27 
        50.2132     7.57931e-27 
        50.2412     7.96694e-27 
         50.269     8.37444e-27 
         50.297     8.80277e-27 
        50.3249     9.25298e-27 
        50.3529     9.72623e-27 
        50.3809     1.02237e-26 
        50.4088     1.07466e-26 
        50.4369     1.12962e-26 
        50.4649      1.1874e-26 
         50.493     1.24813e-26 
         50.521     1.31197e-26 
        50.5491     1.37907e-26 
        50.5771     1.44905e-26 
        50.6053     1.51994e-26 
        50.6334     1.59427e-26 
        50.6616     1.67224e-26 
        50.6897     1.75405e-26 
        50.7179     1.83983e-26 
        50.7461     1.92982e-26 
        50.7742     2.02421e-26 
        50.8025     2.12321e-26 
        50.8307     2.22705e-26 
        50.8589     2.33599e-26 
        50.8872     2.45024e-26 
        50.9155     2.57009e-26 
        50.9438     2.69579e-26 
        50.9721     2.82764e-26 
        51.0004     2.96594e-26 
        51.0288       3.111e-26 
        51.0571     3.26316e-26 
        51.0855     3.42276e-26 
        51.1139     3.59018e-26 
        51.1423     3.76577e-26 
        51.1707     3.94995e-26 
        51.1991     4.14315e-26 
        51.2276     4.34579e-26 
         51.256     4.55835e-26 
        51.2845     4.78129e-26 
        51.3131     5.01515e-26 
        51.3415     5.26044e-26 
          51.37     5.51774e-26 
        51.3987     5.78759e-26 
        51.4272     6.07067e-26 
        51.4557     6.36761e-26 
        51.4844     6.67904e-26 
        51.5129     7.00571e-26 
        51.5416     7.34835e-26 
        51.5703     7.70776e-26 
        51.5989     8.08477e-26 
        51.6276     8.48019e-26 
        51.6563     8.89494e-26 
         51.685        9.33e-26 
        51.7137     9.78635e-26 
        51.7424      1.0265e-25 
        51.7712     1.07671e-25 
           51.8     1.12937e-25 
        51.8287     1.18461e-25 
        51.8575     1.24255e-25 
        51.8863     1.30332e-25 
        51.9152     1.36706e-25 
         51.944     1.43392e-25 
        51.9729     1.50406e-25 
        52.0018     1.57763e-25 
        52.0307     1.65478e-25 
        52.0596     1.73572e-25 
        52.0885     1.82062e-25 
        52.1175     1.90966e-25 
        52.1464     2.00307e-25 
        52.1754     2.10104e-25 
        52.2044     2.20381e-25 
        52.2334     2.31159e-25 
        52.2624     2.42464e-25 
        52.2915     2.54323e-25 
        52.3205     2.66763e-25 
        52.3496     2.79811e-25 
        52.3787     2.93497e-25 
        52.4078     3.07851e-25 
        52.4369     3.22908e-25 
        52.4661     3.38701e-25 
        52.4952     3.55267e-25 
        52.5244     3.72644e-25 
        52.5536      3.9087e-25 
        52.5828     4.09988e-25 
        52.6121      4.3004e-25 
        52.6413     4.51073e-25 
        52.6705     4.73135e-25 
        52.6997     4.96277e-25 
         52.729      5.2055e-25 
        52.7583      5.4601e-25 
        52.7877     5.72715e-25 
         52.817     6.00183e-25 
        52.8463     6.28139e-25 
        52.8758     6.57452e-25 
        52.9051     6.88136e-25 
        52.9345      7.2025e-25 
         52.964     7.53862e-25 
        52.9934     7.89045e-25 
        53.0228      8.2587e-25 
        53.0523     8.64412e-25 
        53.0818     9.04753e-25 
        53.1113     9.46976e-25 
        53.1407     9.91172e-25 
        53.1703     1.03743e-24 
        53.1999     1.08584e-24 
        53.2294     1.13652e-24 
         53.259     1.18956e-24 
        53.2886     1.24507e-24 
        53.3182     1.30318e-24 
        53.3478       1.364e-24 
        53.3775     1.42765e-24 
        53.4071     1.49428e-24 
        53.4368     1.56401e-24 
        53.4665     1.63701e-24 
        53.4963     1.71341e-24 
         53.526     1.79336e-24 
        53.5557     1.87706e-24 
        53.5855     1.96467e-24 
        53.6153     2.05634e-24 
         53.645     2.15233e-24 
        53.6749     2.25276e-24 
        53.7047     2.35789e-24 
        53.7345     2.46794e-24 
        53.7644     2.58312e-24 
        53.7942     2.70367e-24 
        53.8242     2.82985e-24 
         53.854     2.96192e-24 
        53.8839     3.10015e-24 
        53.9139     3.24483e-24 
        53.9439     3.39626e-24 
        53.9739     3.55476e-24 
        54.0038     3.72066e-24 
        54.0339     3.89428e-24 
        54.0639     4.07604e-24 
         54.094     4.26625e-24 
         54.124     4.46536e-24 
         54.154     4.67376e-24 
        54.1842     4.89187e-24 
        54.2143     5.12017e-24 
        54.2444     5.35913e-24 
        54.2745     5.60923e-24 
        54.3047       5.871e-24 
        54.3349     6.14499e-24 
        54.3651     6.43177e-24 
        54.3953     6.73195e-24 
        54.4255     7.04613e-24 
        54.4557     7.37496e-24 
         54.486     7.71913e-24 
        54.5163     8.07936e-24 
        54.5466     8.45643e-24 
        54.5769     8.85109e-24 
        54.6072     9.26417e-24 
        54.6376     9.69651e-24 
        54.6679      1.0149e-23 
        54.6984     1.06227e-23 
        54.7287     1.11184e-23 
        54.7591     1.16373e-23 
        54.7895     1.21804e-23 
          54.82     1.27488e-23 
        54.8505     1.33438e-23 
         54.881     1.39665e-23 
        54.9115     1.46183e-23 
         54.942     1.53006e-23 
        54.9725     1.60147e-23 
         55.003     1.67621e-23 
        55.0336     1.75443e-23 
        55.0642     1.83631e-23 
        55.0948       1.922e-23 
        55.1254     2.01171e-23 
        55.1561      2.1056e-23 
        55.1867     2.20386e-23 
        55.2174     2.30671e-23 
         55.248     2.41312e-23 
        55.2788      2.5203e-23 
        55.3095     2.63227e-23 
        55.3402     2.74923e-23 
         55.371     2.87138e-23 
        55.4017     2.99897e-23 
        55.4325     3.13221e-23 
        55.4633     3.27139e-23 
        55.4941     3.41674e-23 
         55.525     3.56854e-23 
        55.5558      3.7271e-23 
        55.5867      3.8927e-23 
        55.6176     4.06566e-23 
        55.6485      4.2463e-23 
        55.6794     4.43498e-23 
        55.7104     4.63202e-23 
        55.7413     4.83783e-23 
        55.7723     5.05278e-23 
        55.8033     5.27729e-23 
        55.8343     5.51175e-23 
        55.8653     5.75665e-23 
        55.8964     6.01243e-23 
        55.9275     6.27957e-23 
        55.9586     6.55857e-23 
        55.9896     6.84999e-23 
        56.0208     7.15433e-23 
        56.0519     7.47221e-23 
         56.083     7.80421e-23 
        56.1142     8.15095e-23 
        56.1453     8.51315e-23 
        56.1766     8.89138e-23 
        56.2077     9.28645e-23 
        56.2391     9.69903e-23 
        56.2703       1.013e-22 
        56.3016     1.05801e-22 
        56.3328     1.10502e-22 
        56.3642     1.15411e-22 
        56.3954     1.20539e-22 
        56.4268     1.25895e-22 
        56.4582     1.31489e-22 
        56.4896      1.3733e-22 
        56.5209     1.43433e-22 
        56.5523     1.49805e-22 
        56.5837     1.56462e-22 
        56.6152     1.63413e-22 
        56.6467     1.70674e-22 
        56.6782     1.78258e-22 
        56.7096     1.86178e-22 
        56.7412      1.9445e-22 
        56.7726     2.03089e-22 
        56.8043     2.12112e-22 
        56.8358     2.21537e-22 
        56.8674      2.3138e-22 
         56.899     2.41661e-22 
        56.9306     2.52399e-22 
        56.9623     2.63612e-22 
        56.9939     2.75326e-22 
        57.0256     2.87559e-22 
        57.0572     3.00335e-22 
         57.089      3.1368e-22 
        57.1207     3.27616e-22 
        57.1524     3.42174e-22 
        57.1841     3.57377e-22 
         57.216     3.73255e-22 
        57.2478     3.89839e-22 
        57.2795     4.07162e-22 
        57.3114     4.25252e-22 
        57.3433     4.44145e-22 
        57.3751     4.63879e-22 
         57.407     4.84491e-22 
        57.4389     5.06017e-22 
        57.4708       5.285e-22 
        57.5028     5.51982e-22 
        57.5347     5.76508e-22 
        57.5667     6.02123e-22 
        57.5987     6.28876e-22 
        57.6307     6.56818e-22 
        57.6627     6.86001e-22 
        57.6948     7.16481e-22 
        57.7268     7.48317e-22 
        57.7589     7.81563e-22 
         57.791      8.1629e-22 
        57.8231      8.5256e-22 
        57.8552     8.90439e-22 
        57.8874     9.30002e-22 
        57.9196     9.70898e-22 
        57.9517      1.0119e-21 
        57.9839      1.0546e-21 
        58.0162      1.0991e-21 
        58.0485     1.14548e-21 
        58.0806     1.19383e-21 
        58.1129     1.24421e-21 
        58.1453     1.29671e-21 
        58.1776     1.35142e-21 
        58.2099     1.40845e-21 
        58.2422     1.46789e-21 
        58.2746     1.52984e-21 
         58.307     1.59439e-21 
        58.3393     1.66167e-21 
        58.3718     1.73179e-21 
        58.4042     1.80489e-21 
        58.4367     1.88104e-21 
        58.4692     1.96043e-21 
        58.5017     2.04315e-21 
        58.5341     2.12938e-21 
        58.5667     2.21923e-21 
        58.5992     2.31289e-21 
        58.6318     2.41048e-21 
        58.6644     2.51221e-21 
         58.697     2.61822e-21 
        58.7296     2.72871e-21 
        58.7622     2.84386e-21 
        58.7949     2.96386e-21 
        58.8276     3.08894e-21 
        58.8603     3.21929e-21 
         58.893     3.35514e-21 
        58.9256     3.49674e-21 
        58.9584     3.64429e-21 
        58.9912     3.79808e-21 
         59.024     3.95835e-21 
        59.0568     4.12539e-21 
        59.0896     4.29948e-21 
        59.1224     4.48093e-21 
        59.1553     4.67001e-21 
        59.1882     4.86707e-21 
        59.2211     5.07247e-21 
         59.254     5.28653e-21 
        59.2869     5.50961e-21 
        59.3199     5.74212e-21 
        59.3529     5.98442e-21 
        59.3858     6.23697e-21 
        59.4187     6.50018e-21 
        59.4518     6.77446e-21 
        59.4849     7.06035e-21 
        59.5179     7.35829e-21 
        59.5509     7.66882e-21 
        59.5841     7.99243e-21 
        59.6171     8.32972e-21 
        59.6503      8.6812e-21 
        59.6835     9.04756e-21 
        59.7166     9.42936e-21 
        59.7498     9.82726e-21 
         59.783      1.0242e-20 
        59.8162     1.06742e-20 
        59.8494     1.11246e-20 
        59.8827     1.15941e-20 
        59.9161     1.20833e-20 
        59.9493     1.25933e-20 
        59.9826     1.31247e-20 
         60.016     1.36785e-20 
        60.0493     1.42558e-20 
        60.0826     1.48574e-20 
        60.1161     1.54843e-20 
        60.1495     1.61377e-20 
        60.1829     1.68188e-20 
        60.2163     1.75285e-20 
        60.2499     1.82682e-20 
        60.2833     1.90391e-20 
        60.3168     1.98425e-20 
        60.3503     2.06799e-20 
        60.3838     2.15526e-20 
        60.4174      2.2462e-20 
        60.4509       2.341e-20 
        60.4846     2.43979e-20 
        60.5182     2.54274e-20 
        60.5518     2.65005e-20 
        60.5854     2.76188e-20 
        60.6191     2.87842e-20 
        60.6528     2.99989e-20 
        60.6865     3.12649e-20 
        60.7203     3.25842e-20 
         60.754     3.39593e-20 
        60.7878     3.53923e-20 
        60.8215     3.68858e-20 
        60.8554     3.84379e-20 
        60.8891     3.99865e-20 
         60.923      4.1585e-20 
        60.9568     4.32477e-20 
        60.9907     4.49766e-20 
        61.0246     4.67748e-20 
        61.0585     4.86448e-20 
        61.0925     5.05896e-20 
        61.1264     5.26123e-20 
        61.1604     5.47156e-20 
        61.1944     5.69031e-20 
        61.2284     5.91782e-20 
        61.2624      6.1544e-20 
        61.2965     6.40045e-20 
        61.3305     6.65636e-20 
        61.3646     6.92246e-20 
        61.3987     7.19923e-20 
        61.4328     7.48705e-20 
        61.4669     7.78639e-20 
        61.5011     8.09768e-20 
        61.5353     8.42142e-20 
        61.5694     8.75812e-20 
        61.6037     9.10824e-20 
        61.6379     9.47241e-20 
        61.6721     9.85111e-20 
        61.7064      1.0245e-19 
        61.7407     1.06545e-19 
         61.775     1.10805e-19 
        61.8093     1.15235e-19 
        61.8437     1.19842e-19 
        61.8781     1.24633e-19 
        61.9124     1.29616e-19 
        61.9469     1.34798e-19 
        61.9813     1.40187e-19 
        62.0157     1.45793e-19 
        62.0502     1.51621e-19 
        62.0846     1.57682e-19 
        62.1191     1.63987e-19 
        62.1536     1.70543e-19 
        62.1882     1.77361e-19 
        62.2228     1.84452e-19 
        62.2574     1.91826e-19 
        62.2919     1.99495e-19 
        62.3265     2.07472e-19 
        62.3613     2.15765e-19 
        62.3959     2.24391e-19 
        62.4305     2.33363e-19 
        62.4652     2.42693e-19 
