# TLUSTY OSTAR2002+BSTAR2006
# teff = 40000 K (value for the effective temperature for the model. Temperatures are given in K)
# logg = 3.75 log(cm/s2) (value for Log(G) for the model.)
# z = 0.5  (Z/Z0)
#
# column 1: WAVELENGTH (ANGSTROM), Wavelength in Angstrom
# column 2: FLUX (ERG/CM2/S/A), Flux in erg/cm2/s/A
        44.8829     6.44084e-26 
        44.9078     6.67883e-26 
        44.9328     7.01269e-26 
        44.9578     7.36327e-26 
        44.9827     7.73137e-26 
        45.0077     8.11788e-26 
        45.0327      8.5237e-26 
        45.0578      8.9498e-26 
        45.0828     9.39723e-26 
        45.1079     9.86698e-26 
        45.1329     1.03602e-25 
         45.158     1.08782e-25 
        45.1831      1.1422e-25 
        45.2082      1.1993e-25 
        45.2333     1.25926e-25 
        45.2585     1.32221e-25 
        45.2836      1.3883e-25 
        45.3088     1.45771e-25 
        45.3339     1.53058e-25 
        45.3592     1.60709e-25 
        45.3844     1.68743e-25 
        45.4096     1.77179e-25 
        45.4348     1.86036e-25 
        45.4601     1.95336e-25 
        45.4853     2.05102e-25 
        45.5106     2.15356e-25 
        45.5359     2.26122e-25 
        45.5612     2.37425e-25 
        45.5865     2.49295e-25 
        45.6118     2.61758e-25 
        45.6372     2.74843e-25 
        45.6626     2.88582e-25 
         45.688     3.03008e-25 
        45.7133     3.18156e-25 
        45.7388     3.34062e-25 
        45.7642     3.50761e-25 
        45.7896     3.68297e-25 
         45.815     3.86708e-25 
        45.8405     4.06041e-25 
         45.866      4.2634e-25 
        45.8915     4.47652e-25 
         45.917      4.7003e-25 
        45.9425     4.93529e-25 
         45.968     5.18199e-25 
        45.9936     5.44106e-25 
        46.0191     5.71306e-25 
        46.0447     5.99866e-25 
        46.0702     6.29855e-25 
        46.0959     6.61341e-25 
        46.1215     6.94403e-25 
        46.1471     7.29118e-25 
        46.1728     7.65567e-25 
        46.1984     8.03839e-25 
        46.2241     8.44023e-25 
        46.2498     8.86216e-25 
        46.2755     9.30521e-25 
        46.3012     9.77038e-25 
        46.3269     1.02588e-24 
        46.3527     1.07717e-24 
        46.3784     1.13102e-24 
        46.4042     1.18756e-24 
          46.43     1.24692e-24 
        46.4558     1.30926e-24 
        46.4816     1.37471e-24 
        46.5074     1.44343e-24 
        46.5333     1.51559e-24 
        46.5591     1.59136e-24 
         46.585     1.67092e-24 
        46.6109     1.75445e-24 
        46.6368     1.84159e-24 
        46.6627     1.93043e-24 
        46.6886      2.0236e-24 
        46.7146     2.12127e-24 
        46.7405     2.22366e-24 
        46.7665       2.331e-24 
        46.7925      2.4435e-24 
        46.8185     2.56144e-24 
        46.8445     2.68506e-24 
        46.8705     2.81466e-24 
        46.8966     2.95053e-24 
        46.9226     3.09293e-24 
        46.9487     3.24223e-24 
        46.9748     3.39871e-24 
        47.0009     3.56275e-24 
        47.0271     3.73471e-24 
        47.0532     3.91498e-24 
        47.0794     4.10393e-24 
        47.1055     4.30203e-24 
        47.1317     4.50966e-24 
        47.1579     4.72734e-24 
        47.1841     4.95551e-24 
        47.2103     5.19469e-24 
        47.2366     5.44541e-24 
        47.2628     5.70826e-24 
         47.289     5.98378e-24 
        47.3154     6.27256e-24 
        47.3416     6.57534e-24 
        47.3679     6.89271e-24 
        47.3943     7.22538e-24 
        47.4206     7.57414e-24 
        47.4469     7.93971e-24 
        47.4733     8.32293e-24 
        47.4997     8.72466e-24 
        47.5261     9.14578e-24 
        47.5525     9.58719e-24 
        47.5789     1.00499e-23 
        47.6054      1.0535e-23 
        47.6318     1.10435e-23 
        47.6583     1.15765e-23 
        47.6847     1.21353e-23 
        47.7113      1.2721e-23 
        47.7378      1.3335e-23 
        47.7643     1.39787e-23 
        47.7908     1.46534e-23 
        47.8174     1.53607e-23 
         47.844      1.6102e-23 
        47.8706     1.68793e-23 
        47.8971      1.7694e-23 
        47.9238     1.85479e-23 
        47.9505     1.94432e-23 
        47.9771     2.03817e-23 
        48.0037     2.13653e-23 
        48.0304     2.23965e-23 
        48.0571     2.34777e-23 
        48.0838     2.46107e-23 
        48.1105     2.57988e-23 
        48.1372      2.7044e-23 
         48.164     2.83492e-23 
        48.1908     2.97176e-23 
        48.2175     3.11519e-23 
        48.2444     3.26554e-23 
        48.2712     3.42316e-23 
         48.298     3.58838e-23 
        48.3248      3.7616e-23 
        48.3517     3.94315e-23 
        48.3785     4.13348e-23 
        48.4054     4.33299e-23 
        48.4323     4.54212e-23 
        48.4592     4.76135e-23 
        48.4862     4.99116e-23 
        48.5131     5.23245e-23 
          48.54     5.47847e-23 
         48.567      5.7333e-23 
         48.594     5.99998e-23 
         48.621     6.27905e-23 
         48.648     6.57113e-23 
        48.6751     6.87676e-23 
        48.7022     7.19661e-23 
        48.7292     7.53136e-23 
        48.7563     7.88168e-23 
        48.7834     8.24827e-23 
        48.8105     8.63193e-23 
        48.8376     9.03345e-23 
        48.8647     9.45362e-23 
        48.8919     9.89333e-23 
         48.919     1.03535e-22 
        48.9463     1.08351e-22 
        48.9735     1.13391e-22 
        49.0007     1.18665e-22 
        49.0279     1.24184e-22 
        49.0551     1.29961e-22 
        49.0824     1.36006e-22 
        49.1097     1.42332e-22 
         49.137     1.48952e-22 
        49.1643     1.55881e-22 
        49.1916      1.6313e-22 
        49.2189     1.70719e-22 
        49.2463      1.7866e-22 
        49.2737     1.86969e-22 
         49.301     1.95666e-22 
        49.3284     2.04768e-22 
        49.3559     2.14291e-22 
        49.3833      2.2426e-22 
        49.4107      2.3469e-22 
        49.4382     2.45606e-22 
        49.4656      2.5703e-22 
        49.4932     2.68986e-22 
        49.5206     2.81497e-22 
        49.5481     2.94592e-22 
        49.5757     3.08293e-22 
        49.6032     3.22633e-22 
        49.6308      3.3764e-22 
        49.6584     3.53345e-22 
         49.686     3.69779e-22 
        49.7136     3.86979e-22 
        49.7412      4.0498e-22 
        49.7688     4.23817e-22 
        49.7965      4.4353e-22 
        49.8242      4.6416e-22 
        49.8519     4.85749e-22 
        49.8796     5.08342e-22 
        49.9073     5.31989e-22 
         49.935     5.56733e-22 
        49.9627      5.8263e-22 
        49.9906     6.09728e-22 
        50.0183      6.3809e-22 
        50.0462     6.67769e-22 
        50.0739      6.9883e-22 
        50.1018     7.31335e-22 
        50.1296     7.65352e-22 
        50.1574     8.00952e-22 
        50.1853     8.38207e-22 
        50.2132     8.77194e-22 
        50.2412     9.17995e-22 
         50.269     9.60695e-22 
         50.297     1.00538e-21 
        50.3249     1.05215e-21 
        50.3529     1.10108e-21 
        50.3809      1.1523e-21 
        50.4088      1.2059e-21 
        50.4369     1.26199e-21 
        50.4649     1.32068e-21 
         50.493     1.38211e-21 
         50.521      1.4464e-21 
        50.5491     1.51368e-21 
        50.5771     1.58361e-21 
        50.6053     1.65443e-21 
        50.6334      1.7284e-21 
        50.6616      1.8057e-21 
        50.6897     1.88645e-21 
        50.7179      1.9708e-21 
        50.7461     2.05892e-21 
        50.7742       2.151e-21 
        50.8025     2.24719e-21 
        50.8307     2.34768e-21 
        50.8589     2.45267e-21 
        50.8872     2.56234e-21 
        50.9155     2.67691e-21 
        50.9438     2.79662e-21 
        50.9721     2.92167e-21 
        51.0004     3.05232e-21 
        51.0288     3.18882e-21 
        51.0571     3.33142e-21 
        51.0855     3.48039e-21 
        51.1139     3.63602e-21 
        51.1423     3.79861e-21 
        51.1707     3.96848e-21 
        51.1991     4.14593e-21 
        51.2276     4.33135e-21 
         51.256     4.52503e-21 
        51.2845     4.72736e-21 
        51.3131     4.93876e-21 
        51.3415     5.15961e-21 
          51.37     5.39034e-21 
        51.3987     5.63137e-21 
        51.4272      5.8832e-21 
        51.4557      6.1463e-21 
        51.4844     6.42113e-21 
        51.5129     6.70827e-21 
        51.5416     7.00823e-21 
        51.5703     7.32162e-21 
        51.5989     7.64904e-21 
        51.6276     7.99108e-21 
        51.6563     8.34841e-21 
         51.685     8.72174e-21 
        51.7137     9.11176e-21 
        51.7424     9.51921e-21 
        51.7712     9.94488e-21 
           51.8     1.03896e-20 
        51.8287     1.08542e-20 
        51.8575     1.13396e-20 
        51.8863     1.18467e-20 
        51.9152     1.23764e-20 
         51.944     1.29298e-20 
        51.9729      1.3508e-20 
        52.0018     1.41121e-20 
        52.0307     1.47431e-20 
        52.0596     1.54024e-20 
        52.0885     1.60912e-20 
        52.1175     1.68106e-20 
        52.1464     1.75624e-20 
        52.1754     1.83478e-20 
        52.2044     1.91683e-20 
        52.2334     2.00255e-20 
        52.2624     2.09209e-20 
        52.2915     2.18564e-20 
        52.3205     2.28337e-20 
        52.3496     2.38548e-20 
        52.3787     2.49216e-20 
        52.4078      2.6036e-20 
        52.4369     2.72003e-20 
        52.4661     2.84165e-20 
        52.4952     2.96873e-20 
        52.5244     3.10148e-20 
        52.5536     3.24017e-20 
        52.5828     3.38507e-20 
        52.6121     3.53644e-20 
        52.6413     3.69458e-20 
        52.6705      3.8598e-20 
        52.6997      4.0324e-20 
         52.729     4.21271e-20 
        52.7583      4.4011e-20 
        52.7877     4.59789e-20 
         52.817     4.79986e-20 
        52.8463     5.00515e-20 
        52.8758     5.21957e-20 
        52.9051     5.44322e-20 
        52.9345     5.67643e-20 
         52.964     5.91961e-20 
        52.9934     6.17324e-20 
        53.0228     6.43774e-20 
        53.0523     6.71357e-20 
        53.0818     7.00121e-20 
        53.1113     7.30116e-20 
        53.1407     7.61399e-20 
        53.1703     7.94019e-20 
        53.1999     8.28038e-20 
        53.2294     8.63515e-20 
         53.259     9.00511e-20 
        53.2886     9.39095e-20 
        53.3182     9.79328e-20 
        53.3478     1.02129e-19 
        53.3775     1.06505e-19 
        53.4071     1.11068e-19 
        53.4368     1.15826e-19 
        53.4665     1.20789e-19 
        53.4963     1.25964e-19 
         53.526     1.31361e-19 
        53.5557     1.36989e-19 
        53.5855     1.42858e-19 
        53.6153     1.48978e-19 
         53.645     1.55362e-19 
        53.6749     1.62018e-19 
        53.7047      1.6896e-19 
        53.7345     1.76198e-19 
        53.7644     1.83748e-19 
        53.7942     1.91621e-19 
        53.8242     1.99831e-19 
         53.854     2.08393e-19 
        53.8839     2.17321e-19 
        53.9139     2.26633e-19 
        53.9439     2.36342e-19 
        53.9739     2.46467e-19 
        54.0038     2.57028e-19 
        54.0339      2.6804e-19 
        54.0639     2.79523e-19 
         54.094       2.915e-19 
         54.124     3.03989e-19 
         54.154     3.17013e-19 
        54.1842     3.30596e-19 
        54.2143      3.4476e-19 
        54.2444     3.59531e-19 
        54.2745     3.74934e-19 
        54.3047     3.90998e-19 
        54.3349     4.07749e-19 
        54.3651      4.2522e-19 
        54.3953     4.43439e-19 
        54.4255     4.62438e-19 
        54.4557     4.82251e-19 
         54.486     5.02912e-19 
        54.5163     5.24458e-19 
        54.5466      5.4693e-19 
        54.5769     5.70363e-19 
        54.6072       5.948e-19 
        54.6376     6.20285e-19 
        54.6679      6.4686e-19 
        54.6984     6.74572e-19 
        54.7287     7.03475e-19 
        54.7591     7.33616e-19 
        54.7895     7.65048e-19 
          54.82     7.97826e-19 
        54.8505     8.32008e-19 
         54.881     8.67653e-19 
        54.9115     9.04828e-19 
         54.942     9.43596e-19 
        54.9725     9.84025e-19 
         55.003     1.02618e-18 
        55.0336     1.07015e-18 
        55.0642       1.116e-18 
        55.0948     1.16381e-18 
        55.1254     1.21368e-18 
        55.1561     1.26568e-18 
        55.1867      1.3199e-18 
        55.2174     1.37645e-18 
         55.248     1.43479e-18 
        55.2788     1.49348e-18 
        55.3095     1.55461e-18 
        55.3402     1.61824e-18 
         55.371     1.68445e-18 
        55.4017      1.7534e-18 
        55.4325     1.82515e-18 
        55.4633     1.89984e-18 
        55.4941      1.9776e-18 
         55.525     2.05852e-18 
        55.5558     2.14278e-18 
        55.5867     2.23046e-18 
        55.6176     2.32173e-18 
        55.6485     2.41676e-18 
        55.6794     2.51567e-18 
        55.7104     2.61861e-18 
        55.7413     2.72579e-18 
        55.7723     2.83733e-18 
        55.8033     2.95346e-18 
        55.8343     3.07431e-18 
        55.8653     3.20014e-18 
        55.8964      3.3311e-18 
        55.9275     3.46741e-18 
        55.9586     3.60931e-18 
        55.9896     3.75703e-18 
        56.0208     3.91078e-18 
        56.0519     4.07083e-18 
         56.083     4.23742e-18 
        56.1142     4.41084e-18 
        56.1453     4.59136e-18 
        56.1766     4.77925e-18 
        56.2077     4.97484e-18 
        56.2391     5.17843e-18 
        56.2703     5.39035e-18 
        56.3016     5.61095e-18 
        56.3328     5.84058e-18 
        56.3642      6.0796e-18 
        56.3954     6.32841e-18 
        56.4268     6.58738e-18 
        56.4582     6.85696e-18 
        56.4896     7.13758e-18 
        56.5209     7.42971e-18 
        56.5523     7.73375e-18 
        56.5837     8.05027e-18 
        56.6152      8.3797e-18 
        56.6467     8.72263e-18 
        56.6782     9.07959e-18 
        56.7096      9.4512e-18 
        56.7412     9.83798e-18 
        56.7726     1.02406e-17 
        56.8043     1.06597e-17 
        56.8358     1.10959e-17 
        56.8674       1.155e-17 
         56.899     1.20227e-17 
        56.9306     1.25147e-17 
        56.9623     1.30269e-17 
        56.9939       1.356e-17 
        57.0256     1.41149e-17 
        57.0572     1.46925e-17 
         57.089     1.52938e-17 
        57.1207     1.59197e-17 
        57.1524     1.65712e-17 
        57.1841     1.72495e-17 
         57.216     1.79553e-17 
        57.2478     1.86901e-17 
        57.2795      1.9455e-17 
        57.3114     2.02512e-17 
        57.3433     2.10799e-17 
        57.3751     2.19427e-17 
         57.407     2.28407e-17 
        57.4389     2.37754e-17 
        57.4708     2.47484e-17 
        57.5028     2.57612e-17 
        57.5347     2.68156e-17 
        57.5667     2.79129e-17 
        57.5987     2.90553e-17 
        57.6307     3.02443e-17 
        57.6627     3.14821e-17 
        57.6948     3.27704e-17 
        57.7268     3.41116e-17 
        57.7589     3.55074e-17 
         57.791     3.69606e-17 
        57.8231     3.84733e-17 
        57.8552     4.00478e-17 
        57.8874     4.16866e-17 
        57.9196     4.33758e-17 
        57.9517     4.50671e-17 
        57.9839     4.68232e-17 
        58.0162     4.86475e-17 
        58.0485     5.05429e-17 
        58.0806     5.25125e-17 
        58.1129     5.45586e-17 
        58.1453     5.66842e-17 
        58.1776      5.8893e-17 
        58.2099     6.11877e-17 
        58.2422     6.35719e-17 
        58.2746     6.60489e-17 
         58.307     6.86224e-17 
        58.3393     7.12964e-17 
        58.3718     7.40742e-17 
        58.4042     7.69605e-17 
        58.4367     7.99592e-17 
        58.4692     8.30748e-17 
        58.5017     8.63116e-17 
        58.5341     8.96749e-17 
        58.5667     9.31687e-17 
        58.5992     9.67991e-17 
        58.6318     1.00571e-16 
        58.6644      1.0449e-16 
         58.697     1.08561e-16 
        58.7296     1.12791e-16 
        58.7622     1.17186e-16 
        58.7949     1.21751e-16 
        58.8276     1.26495e-16 
        58.8603     1.31424e-16 
         58.893     1.36545e-16 
        58.9256     1.41866e-16 
        58.9584     1.47393e-16 
        58.9912     1.53136e-16 
         59.024     1.59103e-16 
        59.0568     1.65302e-16 
        59.0896     1.71743e-16 
        59.1224     1.78436e-16 
        59.1553     1.85388e-16 
        59.1882      1.9261e-16 
        59.2211     2.00116e-16 
         59.254     2.07913e-16 
        59.2869     2.16015e-16 
        59.3199     2.24432e-16 
        59.3529     2.33176e-16 
        59.3858     2.42262e-16 
        59.4187     2.51702e-16 
        59.4518     2.61509e-16 
        59.4849     2.71698e-16 
        59.5179     2.82284e-16 
        59.5509     2.93284e-16 
        59.5841     3.04711e-16 
        59.6171     3.16584e-16 
        59.6503     3.28919e-16 
        59.6835     3.41736e-16 
        59.7166     3.55051e-16 
        59.7498     3.68884e-16 
         59.783     3.83259e-16 
        59.8162     3.98191e-16 
        59.8494     4.13707e-16 
        59.8827     4.29827e-16 
        59.9161     4.46573e-16 
        59.9493     4.63975e-16 
        59.9826     4.82054e-16 
         60.016     5.00836e-16 
        60.0493     5.20351e-16 
        60.0826     5.40626e-16 
        60.1161      5.6169e-16 
        60.1495     5.83575e-16 
        60.1829     6.06316e-16 
        60.2163     6.29939e-16 
        60.2499     6.54483e-16 
        60.2833     6.79986e-16 
        60.3168     7.06481e-16 
        60.3503     7.34009e-16 
        60.3838     7.62608e-16 
        60.4174     7.92322e-16 
        60.4509     8.23196e-16 
        60.4846     8.55269e-16 
        60.5182     8.88595e-16 
        60.5518      9.2322e-16 
        60.5854     9.59192e-16 
        60.6191     9.96565e-16 
        60.6528     1.03539e-15 
        60.6865     1.07574e-15 
        60.7203     1.11765e-15 
         60.754      1.1612e-15 
        60.7878     1.20645e-15 
        60.8215     1.25346e-15 
        60.8554     1.30216e-15 
        60.8891     1.35065e-15 
         60.923     1.40056e-15 
        60.9568     1.45234e-15 
        60.9907     1.50602e-15 
        61.0246     1.56168e-15 
        61.0585      1.6194e-15 
        61.0925     1.67926e-15 
        61.1264     1.74133e-15 
        61.1604     1.80569e-15 
        61.1944     1.87243e-15 
        61.2284     1.94164e-15 
        61.2624     2.01341e-15 
        61.2965     2.08783e-15 
        61.3305       2.165e-15 
        61.3646     2.24502e-15 
        61.3987       2.328e-15 
        61.4328     2.41405e-15 
        61.4669     2.50328e-15 
        61.5011      2.5958e-15 
        61.5353     2.69175e-15 
        61.5694     2.79125e-15 
        61.6037     2.89441e-15 
        61.6379      3.0014e-15 
        61.6721     3.11233e-15 
        61.7064     3.22737e-15 
        61.7407     3.34665e-15 
         61.775     3.47035e-15 
        61.8093     3.59863e-15 
        61.8437     3.73163e-15 
        61.8781     3.86957e-15 
        61.9124     4.01258e-15 
        61.9469     4.16089e-15 
        61.9813     4.31469e-15 
        62.0157     4.47418e-15 
        62.0502     4.63955e-15 
        62.0846     4.81103e-15 
        62.1191     4.98886e-15 
        62.1536     5.17326e-15 
        62.1882     5.36447e-15 
        62.2228     5.56275e-15 
        62.2574     5.76835e-15 
        62.2919     5.98157e-15 
        62.3265     6.20266e-15 
        62.3613      6.4319e-15 
        62.3959     6.66963e-15 
        62.4305     6.91618e-15 
        62.4652     7.17181e-15 
