# TLUSTY OSTAR2002+BSTAR2006
# teff = 40000 K (value for the effective temperature for the model. Temperatures are given in K)
# logg = 4.75 log(cm/s2) (value for Log(G) for the model.)
# z = 0.5  (Z/Z0)
#
# column 1: WAVELENGTH (ANGSTROM), Wavelength in Angstrom
# column 2: FLUX (ERG/CM2/S/A), Flux in erg/cm2/s/A
        44.8829     6.39755e-28 
        44.9078     6.64532e-28 
        44.9328     6.99351e-28 
        44.9578     7.35995e-28 
        44.9827      7.7456e-28 
        45.0077     8.15145e-28 
        45.0327     8.57856e-28 
        45.0578     9.02805e-28 
        45.0828     9.50112e-28 
        45.1079     9.99894e-28 
        45.1329     1.05228e-27 
         45.158     1.10742e-27 
        45.1831     1.16545e-27 
        45.2082     1.22652e-27 
        45.2333     1.29078e-27 
        45.2585     1.35842e-27 
        45.2836     1.42959e-27 
        45.3088      1.5045e-27 
        45.3339     1.58333e-27 
        45.3592     1.66629e-27 
        45.3844      1.7536e-27 
        45.4096     1.84549e-27 
        45.4348      1.9422e-27 
        45.4601     2.04396e-27 
        45.4853     2.15106e-27 
        45.5106     2.26377e-27 
        45.5359     2.38238e-27 
        45.5612     2.50721e-27 
        45.5865     2.63858e-27 
        45.6118     2.77684e-27 
        45.6372     2.92233e-27 
        45.6626     3.07546e-27 
         45.688     3.23661e-27 
        45.7133     3.40619e-27 
        45.7388     3.58466e-27 
        45.7642      3.7725e-27 
        45.7896     3.97017e-27 
         45.815     4.17819e-27 
        45.8405     4.39712e-27 
         45.866     4.62752e-27 
        45.8915     4.86999e-27 
         45.917     5.12515e-27 
        45.9425     5.39371e-27 
         45.968     5.67633e-27 
        45.9936     5.97376e-27 
        46.0191     6.28676e-27 
        46.0447     6.61616e-27 
        46.0702     6.96285e-27 
        46.0959     7.32768e-27 
        46.1215     7.71163e-27 
        46.1471      8.1157e-27 
        46.1728     8.54094e-27 
        46.1984     8.98849e-27 
        46.2241     9.45943e-27 
        46.2498     9.95508e-27 
        46.2755     1.04767e-26 
        46.3012     1.10257e-26 
        46.3269     1.16034e-26 
        46.3527     1.22114e-26 
        46.3784     1.28512e-26 
        46.4042     1.35246e-26 
          46.43     1.42332e-26 
        46.4558     1.49791e-26 
        46.4816     1.57639e-26 
        46.5074     1.65899e-26 
        46.5333     1.74592e-26 
        46.5591     1.83739e-26 
         46.585     1.93368e-26 
        46.6109     2.03498e-26 
        46.6368     2.14084e-26 
        46.6627      2.2487e-26 
        46.6886     2.36204e-26 
        46.7146     2.48109e-26 
        46.7405     2.60613e-26 
        46.7665     2.73749e-26 
        46.7925     2.87547e-26 
        46.8185     3.02039e-26 
        46.8445     3.17263e-26 
        46.8705     3.33254e-26 
        46.8966     3.50051e-26 
        46.9226     3.67694e-26 
        46.9487     3.86226e-26 
        46.9748     4.05691e-26 
        47.0009     4.26139e-26 
        47.0271     4.47617e-26 
        47.0532     4.70177e-26 
        47.0794     4.93875e-26 
        47.1055     5.18768e-26 
        47.1317     5.44913e-26 
        47.1579     5.72379e-26 
        47.1841     6.01227e-26 
        47.2103      6.3153e-26 
        47.2366      6.6336e-26 
        47.2628     6.96795e-26 
         47.289     7.31915e-26 
        47.3154     7.68803e-26 
        47.3416     8.07554e-26 
        47.3679     8.48255e-26 
        47.3943     8.91007e-26 
        47.4206     9.35917e-26 
        47.4469     9.83089e-26 
        47.4733     1.03264e-25 
        47.4997     1.08468e-25 
        47.5261     1.13935e-25 
        47.5525     1.19678e-25 
        47.5789      1.2571e-25 
        47.6054     1.32046e-25 
        47.6318     1.38701e-25 
        47.6583     1.45692e-25 
        47.6847     1.53035e-25 
        47.7113     1.60748e-25 
        47.7378      1.6885e-25 
        47.7643      1.7736e-25 
        47.7908       1.863e-25 
        47.8174      1.9569e-25 
         47.844     2.05551e-25 
        47.8706     2.15912e-25 
        47.8971     2.26795e-25 
        47.9238     2.38225e-25 
        47.9505     2.50233e-25 
        47.9771     2.62845e-25 
        48.0037     2.76092e-25 
        48.0304     2.90007e-25 
        48.0571     3.04625e-25 
        48.0838     3.19979e-25 
        48.1105     3.36107e-25 
        48.1372     3.53047e-25 
         48.164      3.7084e-25 
        48.1908     3.89531e-25 
        48.2175     4.09164e-25 
        48.2444     4.29786e-25 
        48.2712     4.51448e-25 
         48.298     4.74202e-25 
        48.3248     4.98104e-25 
        48.3517     5.23207e-25 
        48.3785     5.49579e-25 
        48.4054     5.77279e-25 
        48.4323     6.06374e-25 
        48.4592     6.36937e-25 
        48.4862     6.69039e-25 
        48.5131     7.02813e-25 
          48.54     7.37225e-25 
         48.567     7.72886e-25 
         48.594      8.1027e-25 
         48.621     8.49461e-25 
         48.648     8.90552e-25 
        48.6751     9.33625e-25 
        48.7022     9.78784e-25 
        48.7292     1.02613e-24 
        48.7563     1.07576e-24 
        48.7834      1.1278e-24 
        48.8105     1.18235e-24 
        48.8376     1.23954e-24 
        48.8647      1.2995e-24 
        48.8919     1.36235e-24 
         48.919     1.42825e-24 
        48.9463     1.49733e-24 
        48.9735     1.56976e-24 
        49.0007     1.64569e-24 
        49.0279      1.7253e-24 
        49.0551     1.80875e-24 
        49.0824     1.89624e-24 
        49.1097     1.98795e-24 
         49.137     2.08411e-24 
        49.1643     2.18492e-24 
        49.1916      2.2906e-24 
        49.2189      2.4014e-24 
        49.2463     2.51755e-24 
        49.2737     2.63932e-24 
         49.301       2.767e-24 
        49.3284     2.90083e-24 
        49.3559     3.04115e-24 
        49.3833     3.18824e-24 
        49.4107     3.34247e-24 
        49.4382     3.50414e-24 
        49.4656     3.67363e-24 
        49.4932     3.85132e-24 
        49.5206     4.03761e-24 
        49.5481     4.23291e-24 
        49.5757     4.43766e-24 
        49.6032     4.65231e-24 
        49.6308     4.87735e-24 
        49.6584     5.11326e-24 
         49.686     5.36058e-24 
        49.7136     5.61988e-24 
        49.7412      5.8917e-24 
        49.7688      6.1767e-24 
        49.7965     6.47546e-24 
        49.8242     6.78868e-24 
        49.8519     7.11705e-24 
        49.8796     7.46128e-24 
        49.9073     7.82221e-24 
         49.935     8.20056e-24 
        49.9627     8.59724e-24 
        49.9906     9.01307e-24 
        50.0183     9.44903e-24 
        50.0462     9.90608e-24 
        50.0739     1.03853e-23 
        50.1018     1.08876e-23 
        50.1296     1.14142e-23 
        50.1574     1.19663e-23 
        50.1853     1.25451e-23 
        50.2132     1.31519e-23 
        50.2412     1.37881e-23 
         50.269      1.4455e-23 
         50.297     1.51542e-23 
        50.3249     1.58872e-23 
        50.3529     1.66558e-23 
        50.3809     1.74613e-23 
        50.4088      1.8306e-23 
        50.4369     1.91913e-23 
        50.4649     2.01197e-23 
         50.493     2.10929e-23 
         50.521     2.21132e-23 
        50.5491     2.31827e-23 
        50.5771     2.42954e-23 
        50.6053     2.54208e-23 
        50.6334     2.65981e-23 
        50.6616     2.78299e-23 
        50.6897     2.91186e-23 
        50.7179     3.04672e-23 
        50.7461      3.1878e-23 
        50.7742     3.33544e-23 
        50.8025      3.4899e-23 
        50.8307     3.65152e-23 
        50.8589     3.82062e-23 
        50.8872     3.99754e-23 
        50.9155     4.18267e-23 
        50.9438     4.37637e-23 
        50.9721     4.57904e-23 
        51.0004     4.79111e-23 
        51.0288     5.01297e-23 
        51.0571     5.24512e-23 
        51.0855     5.48803e-23 
        51.1139     5.74217e-23 
        51.1423     6.00809e-23 
        51.1707     6.28631e-23 
        51.1991     6.57745e-23 
        51.2276     6.88206e-23 
         51.256     7.20076e-23 
        51.2845     7.53422e-23 
        51.3131     7.88312e-23 
        51.3415      8.2482e-23 
          51.37     8.63018e-23 
        51.3987     9.02983e-23 
        51.4272     9.44799e-23 
        51.4557     9.88555e-23 
        51.4844     1.03433e-22 
        51.5129     1.08223e-22 
        51.5416     1.13235e-22 
        51.5703     1.18479e-22 
        51.5989     1.23966e-22 
        51.6276     1.29707e-22 
        51.6563     1.35713e-22 
         51.685     1.41999e-22 
        51.7137     1.48575e-22 
        51.7424     1.55455e-22 
        51.7712     1.62653e-22 
           51.8     1.70186e-22 
        51.8287     1.78067e-22 
        51.8575     1.86314e-22 
        51.8863     1.94943e-22 
        51.9152      2.0397e-22 
         51.944     2.13416e-22 
        51.9729     2.23299e-22 
        52.0018      2.3364e-22 
        52.0307     2.44459e-22 
        52.0596     2.55781e-22 
        52.0885     2.67625e-22 
        52.1175     2.80018e-22 
        52.1464     2.92987e-22 
        52.1754     3.06556e-22 
        52.2044     3.20753e-22 
        52.2334     3.35606e-22 
        52.2624     3.51149e-22 
        52.2915      3.6741e-22 
        52.3205     3.84425e-22 
        52.3496     4.02227e-22 
        52.3787     4.20855e-22 
        52.4078     4.40345e-22 
        52.4369     4.60736e-22 
        52.4661     4.82071e-22 
        52.4952     5.04397e-22 
        52.5244     5.27756e-22 
        52.5536     5.52196e-22 
        52.5828     5.77769e-22 
        52.6121     6.04523e-22 
        52.6413     6.32521e-22 
        52.6705     6.61813e-22 
        52.6997     6.92462e-22 
         52.729     7.24529e-22 
        52.7583     7.58082e-22 
        52.7877     7.93188e-22 
         52.817     8.29219e-22 
        52.8463     8.65827e-22 
        52.8758     9.04118e-22 
        52.9051      9.4411e-22 
        52.9345     9.85866e-22 
         52.964     1.02947e-21 
        52.9934       1.075e-21 
        53.0228     1.12255e-21 
        53.0523      1.1722e-21 
        53.0818     1.22404e-21 
        53.1113     1.27818e-21 
        53.1407     1.33471e-21 
        53.1703     1.39374e-21 
        53.1999     1.45538e-21 
        53.2294     1.51975e-21 
         53.259     1.58697e-21 
        53.2886     1.65717e-21 
        53.3182     1.73046e-21 
        53.3478       1.807e-21 
        53.3775     1.88692e-21 
        53.4071     1.97037e-21 
        53.4368     2.05751e-21 
        53.4665     2.14852e-21 
        53.4963     2.24355e-21 
         53.526     2.34278e-21 
        53.5557      2.4464e-21 
        53.5855      2.5546e-21 
        53.6153     2.66759e-21 
         53.645     2.78558e-21 
        53.6749     2.90877e-21 
        53.7047     3.03743e-21 
        53.7345     3.17177e-21 
        53.7644     3.31205e-21 
        53.7942     3.45853e-21 
        53.8242      3.6115e-21 
         53.854     3.77124e-21 
        53.8839     3.93804e-21 
        53.9139     4.11222e-21 
        53.9439     4.29409e-21 
        53.9739     4.48401e-21 
        54.0038     4.68233e-21 
        54.0339     4.88942e-21 
        54.0639     5.10568e-21 
         54.094     5.33149e-21 
         54.124     5.56729e-21 
         54.154     5.81355e-21 
        54.1842     6.07066e-21 
        54.2143     6.33916e-21 
        54.2444     6.61953e-21 
        54.2745     6.91232e-21 
        54.3047     7.21803e-21 
        54.3349     7.53726e-21 
        54.3651     7.87064e-21 
        54.3953     8.21875e-21 
        54.4255     8.58226e-21 
        54.4557     8.96185e-21 
         54.486     9.35821e-21 
        54.5163     9.77209e-21 
        54.5466     1.02043e-20 
        54.5769     1.06557e-20 
        54.6072     1.11269e-20 
        54.6376     1.16191e-20 
        54.6679      1.2133e-20 
        54.6984     1.26696e-20 
        54.7287     1.32299e-20 
        54.7591     1.38151e-20 
        54.7895     1.44262e-20 
          54.82     1.50642e-20 
        54.8505     1.57305e-20 
         54.881     1.64262e-20 
        54.9115     1.71526e-20 
         54.942     1.79114e-20 
        54.9725     1.87035e-20 
         55.003     1.95308e-20 
        55.0336     2.03946e-20 
        55.0642     2.12966e-20 
        55.0948     2.22385e-20 
        55.1254     2.32221e-20 
        55.1561     2.42492e-20 
        55.1867     2.53217e-20 
        55.2174     2.64416e-20 
         55.248     2.75977e-20 
        55.2788     2.87601e-20 
        55.3095     2.99719e-20 
        55.3402     3.12347e-20 
         55.371     3.25506e-20 
        55.4017     3.39223e-20 
        55.4325     3.53513e-20 
        55.4633     3.68409e-20 
        55.4941     3.83931e-20 
         55.525     4.00105e-20 
        55.5558     4.16964e-20 
        55.5867     4.34532e-20 
        55.6176     4.52838e-20 
        55.6485     4.71918e-20 
        55.6794     4.91801e-20 
        55.7104     5.12523e-20 
        55.7413     5.34116e-20 
        55.7723     5.56619e-20 
        55.8033     5.80072e-20 
        55.8343      6.0451e-20 
        55.8653      6.2998e-20 
        55.8964     6.56523e-20 
        55.9275     6.84184e-20 
        55.9586      7.1301e-20 
        55.9896     7.43052e-20 
        56.0208     7.74357e-20 
        56.0519     8.06983e-20 
         56.083     8.40983e-20 
        56.1142     8.76416e-20 
        56.1453     9.13344e-20 
        56.1766     9.51823e-20 
        56.2077     9.91928e-20 
        56.2391     1.03372e-19 
        56.2703     1.07727e-19 
        56.3016     1.12266e-19 
        56.3328     1.16996e-19 
        56.3642     1.21925e-19 
        56.3954     1.27062e-19 
        56.4268     1.32416e-19 
        56.4582     1.37995e-19 
        56.4896     1.43808e-19 
        56.5209     1.49868e-19 
        56.5523     1.56182e-19 
        56.5837     1.62763e-19 
        56.6152     1.69619e-19 
        56.6467     1.76766e-19 
        56.6782     1.84214e-19 
        56.7096     1.91976e-19 
        56.7412     2.00064e-19 
        56.7726     2.08493e-19 
        56.8043     2.17278e-19 
        56.8358     2.26432e-19 
        56.8674     2.35971e-19 
         56.899     2.45913e-19 
        56.9306     2.56275e-19 
        56.9623     2.67072e-19 
        56.9939     2.78325e-19 
        57.0256     2.90052e-19 
        57.0572     3.02273e-19 
         57.089     3.15008e-19 
        57.1207     3.28279e-19 
        57.1524     3.42111e-19 
        57.1841     3.56526e-19 
         57.216     3.71546e-19 
        57.2478       3.872e-19 
        57.2795     4.03515e-19 
        57.3114     4.20515e-19 
        57.3433     4.38231e-19 
        57.3751     4.56696e-19 
         57.407     4.75938e-19 
        57.4389     4.95991e-19 
        57.4708     5.16888e-19 
        57.5028     5.38665e-19 
        57.5347     5.61362e-19 
        57.5667     5.85011e-19 
        57.5987      6.0966e-19 
        57.6307     6.35346e-19 
        57.6627     6.62115e-19 
        57.6948     6.90011e-19 
        57.7268     7.19085e-19 
        57.7589      7.4938e-19 
         57.791     7.80954e-19 
        57.8231     8.13858e-19 
        57.8552     8.48147e-19 
        57.8874     8.83881e-19 
        57.9196     9.20737e-19 
        57.9517     9.57619e-19 
        57.9839     9.95949e-19 
        58.0162     1.03581e-18 
        58.0485     1.07727e-18 
        58.0806     1.12039e-18 
        58.1129     1.16524e-18 
        58.1453     1.21188e-18 
        58.1776     1.26038e-18 
        58.2099     1.31083e-18 
        58.2422      1.3633e-18 
        58.2746     1.41786e-18 
         58.307     1.47462e-18 
        58.3393     1.53364e-18 
        58.3718     1.59502e-18 
        58.4042     1.65887e-18 
        58.4367     1.72526e-18 
        58.4692     1.79431e-18 
        58.5017     1.86613e-18 
        58.5341     1.94083e-18 
        58.5667     2.01851e-18 
        58.5992      2.0993e-18 
        58.6318     2.18333e-18 
        58.6644     2.27072e-18 
         58.697     2.36161e-18 
        58.7296     2.45613e-18 
        58.7622     2.55445e-18 
        58.7949     2.65668e-18 
        58.8276     2.76302e-18 
        58.8603     2.87362e-18 
         58.893     2.98863e-18 
        58.9256     3.10826e-18 
        58.9584     3.23267e-18 
        58.9912     3.36206e-18 
         59.024     3.49662e-18 
        59.0568     3.63657e-18 
        59.0896     3.78213e-18 
        59.1224     3.93353e-18 
        59.1553     4.09097e-18 
        59.1882      4.2547e-18 
        59.2211     4.42501e-18 
         59.254     4.60212e-18 
        59.2869     4.78633e-18 
        59.3199      4.9779e-18 
        59.3529     5.17714e-18 
        59.3858     5.38437e-18 
        59.4187     5.59989e-18 
        59.4518     5.82402e-18 
        59.4849     6.05712e-18 
        59.5179     6.29957e-18 
        59.5509     6.55174e-18 
        59.5841     6.81396e-18 
        59.6171     7.08671e-18 
        59.6503     7.37034e-18 
        59.6835     7.66534e-18 
        59.7166     7.97215e-18 
        59.7498     8.29125e-18 
         59.783     8.62313e-18 
        59.8162     8.96827e-18 
        59.8494     9.32724e-18 
        59.8827     9.70057e-18 
        59.9161     1.00888e-17 
        59.9493     1.04926e-17 
        59.9826     1.09127e-17 
         60.016     1.13494e-17 
        60.0493     1.18037e-17 
        60.0826     1.22761e-17 
        60.1161     1.27674e-17 
        60.1495     1.32785e-17 
        60.1829       1.381e-17 
        60.2163     1.43628e-17 
        60.2499     1.49376e-17 
        60.2833     1.55355e-17 
        60.3168     1.61574e-17 
        60.3503     1.68041e-17 
        60.3838     1.74767e-17 
        60.4174     1.81762e-17 
        60.4509     1.89038e-17 
        60.4846     1.96603e-17 
        60.5182     2.04473e-17 
        60.5518     2.12657e-17 
        60.5854     2.21169e-17 
        60.6191     2.30021e-17 
        60.6528     2.39227e-17 
        60.6865     2.48804e-17 
        60.7203     2.58761e-17 
         60.754     2.69118e-17 
        60.7878      2.7989e-17 
        60.8215     2.91094e-17 
        60.8554      3.0271e-17 
        60.8891     3.14276e-17 
         60.923     3.26191e-17 
        60.9568     3.38558e-17 
        60.9907     3.51395e-17 
        61.0246     3.64717e-17 
        61.0585     3.78545e-17 
        61.0925     3.92896e-17 
        61.1264     4.07794e-17 
        61.1604     4.23253e-17 
        61.1944     4.39302e-17 
        61.2284     4.55958e-17 
        61.2624     4.73244e-17 
        61.2965     4.91187e-17 
        61.3305     5.09811e-17 
        61.3646     5.29138e-17 
        61.3987     5.49201e-17 
        61.4328     5.70023e-17 
        61.4669     5.91635e-17 
        61.5011     6.14066e-17 
        61.5353     6.37347e-17 
        61.5694     6.61513e-17 
        61.6037     6.86592e-17 
        61.6379     7.12624e-17 
        61.6721     7.39642e-17 
        61.7064     7.67685e-17 
        61.7407     7.96791e-17 
         61.775     8.26999e-17 
        61.8093     8.58355e-17 
        61.8437     8.90896e-17 
        61.8781     9.24674e-17 
        61.9124     9.59733e-17 
        61.9469     9.96122e-17 
        61.9813     1.03389e-16 
        62.0157     1.07309e-16 
        62.0502     1.11377e-16 
        62.0846       1.156e-16 
        62.1191     1.19982e-16 
        62.1536     1.24532e-16 
        62.1882     1.29253e-16 
        62.2228     1.34153e-16 
        62.2574     1.39239e-16 
        62.2919     1.44519e-16 
        62.3265     1.49999e-16 
        62.3613     1.55685e-16 
        62.3959     1.61588e-16 
        62.4305     1.67715e-16 
        62.4652     1.74073e-16 
