# TLUSTY OSTAR2002+BSTAR2006
# teff = 40000 K (value for the effective temperature for the model. Temperatures are given in K)
# logg = 4 log(cm/s2) (value for Log(G) for the model.)
# z = 0.5  (Z/Z0)
#
# column 1: WAVELENGTH (ANGSTROM), Wavelength in Angstrom
# column 2: FLUX (ERG/CM2/S/A), Flux in erg/cm2/s/A
        44.8829     1.03895e-26 
        44.9078     1.07863e-26 
        44.9328     1.13436e-26 
        44.9578     1.19298e-26 
        44.9827     1.25462e-26 
        45.0077     1.31945e-26 
        45.0327     1.38763e-26 
        45.0578     1.45933e-26 
        45.0828     1.53474e-26 
        45.1079     1.61404e-26 
        45.1329     1.69745e-26 
         45.158     1.78516e-26 
        45.1831      1.8774e-26 
        45.2082     1.97441e-26 
        45.2333     2.07644e-26 
        45.2585     2.18373e-26 
        45.2836     2.29659e-26 
        45.3088     2.41524e-26 
        45.3339     2.54006e-26 
        45.3592      2.6713e-26 
        45.3844     2.80933e-26 
        45.4096     2.95449e-26 
        45.4348     3.10718e-26 
        45.4601     3.26773e-26 
        45.4853     3.43658e-26 
        45.5106     3.61416e-26 
        45.5359     3.80092e-26 
        45.5612     3.99731e-26 
        45.5865     4.20387e-26 
        45.6118      4.4211e-26 
        45.6372     4.64955e-26 
        45.6626      4.8898e-26 
         45.688     5.14247e-26 
        45.7133     5.40819e-26 
        45.7388     5.68763e-26 
        45.7642     5.98153e-26 
        45.7896     6.29064e-26 
         45.815     6.61568e-26 
        45.8405     6.95755e-26 
         45.866     7.31705e-26 
        45.8915     7.69515e-26 
         45.917     8.09276e-26 
        45.9425     8.51096e-26 
         45.968     8.95072e-26 
        45.9936     9.41324e-26 
        46.0191     9.89965e-26 
        46.0447     1.04112e-25 
        46.0702     1.09492e-25 
        46.0959     1.15149e-25 
        46.1215       1.211e-25 
        46.1471     1.27357e-25 
        46.1728     1.33938e-25 
        46.1984     1.40859e-25 
        46.2241     1.48138e-25 
        46.2498     1.55792e-25 
        46.2755     1.63843e-25 
        46.3012     1.72309e-25 
        46.3269     1.81212e-25 
        46.3527     1.90577e-25 
        46.3784     2.00424e-25 
        46.4042     2.10781e-25 
          46.43     2.21672e-25 
        46.4558     2.33127e-25 
        46.4816     2.45173e-25 
        46.5074     2.57842e-25 
        46.5333     2.71164e-25 
        46.5591     2.85176e-25 
         46.585     2.99913e-25 
        46.6109     3.15411e-25 
        46.6368     3.31592e-25 
        46.6627     3.48075e-25 
        46.6886     3.65386e-25 
        46.7146     3.83557e-25 
        46.7405     4.02633e-25 
        46.7665     4.22658e-25 
        46.7925     4.43677e-25 
        46.8185     4.65742e-25 
        46.8445     4.88904e-25 
        46.8705      5.1322e-25 
        46.8966     5.38744e-25 
        46.9226     5.65537e-25 
        46.9487     5.93662e-25 
        46.9748     6.23186e-25 
        47.0009     6.54179e-25 
        47.0271     6.86711e-25 
        47.0532     7.20864e-25 
        47.0794     7.56715e-25 
        47.1055      7.9435e-25 
        47.1317     8.33853e-25 
        47.1579     8.75323e-25 
        47.1841     9.18856e-25 
        47.2103     9.64553e-25 
        47.2366     1.01252e-24 
        47.2628     1.06288e-24 
         47.289     1.11574e-24 
        47.3154     1.17122e-24 
        47.3416     1.22948e-24 
        47.3679     1.29062e-24 
        47.3943      1.3548e-24 
        47.4206     1.42218e-24 
        47.4469     1.49291e-24 
        47.4733     1.56716e-24 
        47.4997      1.6451e-24 
        47.5261     1.72692e-24 
        47.5525     1.81279e-24 
        47.5789     1.90294e-24 
        47.6054      1.9976e-24 
        47.6318     2.09693e-24 
        47.6583     2.20122e-24 
        47.6847      2.3107e-24 
        47.7113     2.42561e-24 
        47.7378     2.54624e-24 
        47.7643     2.67288e-24 
        47.7908     2.80581e-24 
        47.8174     2.94535e-24 
         47.844     3.09182e-24 
        47.8706     3.24558e-24 
        47.8971     3.40701e-24 
        47.9238     3.57644e-24 
        47.9505      3.7543e-24 
        47.9771       3.941e-24 
        48.0037     4.13701e-24 
        48.0304     4.34275e-24 
        48.0571     4.55874e-24 
        48.0838     4.78544e-24 
        48.1105     5.02344e-24 
        48.1372     5.27328e-24 
         48.164     5.53553e-24 
        48.1908     5.81081e-24 
        48.2175     6.09981e-24 
        48.2444     6.40316e-24 
        48.2712     6.72161e-24 
         48.298      7.0559e-24 
        48.3248     7.40681e-24 
        48.3517     7.77516e-24 
        48.3785     8.16186e-24 
        48.4054     8.56777e-24 
        48.4323     8.99386e-24 
        48.4592     9.44115e-24 
        48.4862     9.91066e-24 
        48.5131     1.04043e-23 
          48.54     1.09073e-23 
         48.567     1.14284e-23 
         48.594     1.19743e-23 
         48.621     1.25464e-23 
         48.648     1.31457e-23 
        48.6751     1.37737e-23 
        48.7022     1.44317e-23 
        48.7292     1.51211e-23 
        48.7563     1.58435e-23 
        48.7834     1.66003e-23 
        48.8105     1.73933e-23 
        48.8376     1.82242e-23 
        48.8647     1.90948e-23 
        48.8919      2.0007e-23 
         48.919     2.09628e-23 
        48.9463     2.19642e-23 
        48.9735     2.30135e-23 
        49.0007     2.41129e-23 
        49.0279     2.52647e-23 
        49.0551     2.64717e-23 
        49.0824     2.77363e-23 
        49.1097     2.90613e-23 
         49.137     3.04495e-23 
        49.1643     3.19041e-23 
        49.1916     3.34283e-23 
        49.2189     3.50252e-23 
        49.2463     3.66985e-23 
        49.2737     3.84514e-23 
         49.301     4.02885e-23 
        49.3284      4.2213e-23 
        49.3559     4.42296e-23 
        49.3833     4.63425e-23 
        49.4107     4.85564e-23 
        49.4382     5.08761e-23 
        49.4656     5.33064e-23 
        49.4932     5.58528e-23 
        49.5206     5.85211e-23 
        49.5481     6.13168e-23 
        49.5757      6.4246e-23 
        49.6032      6.7315e-23 
        49.6308     7.05307e-23 
        49.6584     7.39002e-23 
         49.686     7.74303e-23 
        49.7136     8.11293e-23 
        49.7412     8.50049e-23 
        49.7688     8.90659e-23 
        49.7965     9.33207e-23 
        49.8242     9.77788e-23 
        49.8519      1.0245e-22 
        49.8796     1.07344e-22 
        49.9073     1.12472e-22 
         49.935     1.17845e-22 
        49.9627     1.23475e-22 
        49.9906     1.29373e-22 
        50.0183     1.35553e-22 
        50.0462     1.42029e-22 
        50.0739     1.48814e-22 
        50.1018     1.55923e-22 
        50.1296     1.63372e-22 
        50.1574     1.71177e-22 
        50.1853     1.79354e-22 
        50.2132     1.87921e-22 
        50.2412     1.96898e-22 
         50.269     2.06305e-22 
         50.297      2.1616e-22 
        50.3249     2.26486e-22 
        50.3529     2.37306e-22 
        50.3809     2.48641e-22 
        50.4088      2.6052e-22 
        50.4369     2.72964e-22 
        50.4649     2.86005e-22 
         50.493     2.99668e-22 
         50.521     3.13984e-22 
        50.5491     3.28983e-22 
        50.5771     3.44581e-22 
        50.6053     3.60362e-22 
        50.6334      3.7686e-22 
        50.6616     3.94116e-22 
        50.6897      4.1216e-22 
        50.7179     4.31031e-22 
        50.7461     4.50766e-22 
        50.7742     4.71405e-22 
        50.8025     4.92989e-22 
        50.8307      5.1556e-22 
        50.8589     5.39166e-22 
        50.8872     5.63851e-22 
        50.9155     5.89666e-22 
        50.9438     6.16665e-22 
        50.9721     6.44898e-22 
        51.0004     6.74427e-22 
        51.0288     7.05305e-22 
        51.0571     7.37598e-22 
        51.0855      7.7137e-22 
        51.1139     8.06686e-22 
        51.1423      8.4362e-22 
        51.1707     8.82244e-22 
        51.1991      9.2264e-22 
        51.2276     9.64884e-22 
         51.256     1.00906e-21 
        51.2845     1.05526e-21 
        51.3131     1.10358e-21 
        51.3415      1.1541e-21 
          51.37     1.20695e-21 
        51.3987      1.2622e-21 
        51.4272     1.31999e-21 
        51.4557     1.38043e-21 
        51.4844     1.44364e-21 
        51.5129     1.50973e-21 
        51.5416     1.57885e-21 
        51.5703     1.65114e-21 
        51.5989     1.72674e-21 
        51.6276      1.8058e-21 
        51.6563     1.88849e-21 
         51.685     1.97494e-21 
        51.7137     2.06537e-21 
        51.7424     2.15993e-21 
        51.7712     2.25883e-21 
           51.8     2.36224e-21 
        51.8287      2.4704e-21 
        51.8575     2.58351e-21 
        51.8863      2.7018e-21 
        51.9152     2.82551e-21 
         51.944     2.95487e-21 
        51.9729     3.09017e-21 
        52.0018     3.23165e-21 
        52.0307      3.3796e-21 
        52.0596     3.53434e-21 
        52.0885     3.69616e-21 
        52.1175     3.86538e-21 
        52.1464     4.04236e-21 
        52.1754     4.22746e-21 
        52.2044     4.42101e-21 
        52.2334     4.62342e-21 
        52.2624     4.83511e-21 
        52.2915     5.05648e-21 
        52.3205       5.288e-21 
        52.3496     5.53012e-21 
        52.3787     5.78332e-21 
        52.4078     6.04811e-21 
        52.4369     6.32501e-21 
        52.4661     6.61459e-21 
        52.4952     6.91745e-21 
        52.5244     7.23418e-21 
        52.5536     7.56539e-21 
        52.5828     7.91177e-21 
        52.6121       8.274e-21 
        52.6413     8.65286e-21 
        52.6705     9.04904e-21 
        52.6997     9.46335e-21 
         52.729     9.89664e-21 
        52.7583     1.03497e-20 
        52.7877     1.08236e-20 
         52.817     1.13098e-20 
        52.8463     1.18038e-20 
        52.8758     1.23203e-20 
        52.9051     1.28594e-20 
        52.9345     1.34221e-20 
         52.964     1.40094e-20 
        52.9934     1.46224e-20 
        53.0228     1.52622e-20 
        53.0523     1.59301e-20 
        53.0818     1.66271e-20 
        53.1113     1.73547e-20 
        53.1407     1.81141e-20 
        53.1703     1.89067e-20 
        53.1999      1.9734e-20 
        53.2294     2.05975e-20 
         53.259     2.14987e-20 
        53.2886     2.24395e-20 
        53.3182     2.34215e-20 
        53.3478     2.44462e-20 
        53.3775     2.55159e-20 
        53.4071     2.66324e-20 
        53.4368     2.77979e-20 
        53.4665     2.90143e-20 
        53.4963     3.02838e-20 
         53.526     3.16089e-20 
        53.5557     3.29921e-20 
        53.5855     3.44356e-20 
        53.6153     3.59424e-20 
         53.645     3.75152e-20 
        53.6749     3.91566e-20 
        53.7047     4.08701e-20 
        53.7345     4.26584e-20 
        53.7644     4.45251e-20 
        53.7942     4.64734e-20 
        53.8242     4.85069e-20 
         53.854     5.06295e-20 
        53.8839     5.28449e-20 
        53.9139     5.51572e-20 
        53.9439     5.75708e-20 
        53.9739     6.00898e-20 
        54.0038     6.27192e-20 
        54.0339     6.54634e-20 
        54.0639      6.8328e-20 
         54.094     7.13179e-20 
         54.124     7.44385e-20 
         54.154     7.76958e-20 
        54.1842     8.10954e-20 
        54.2143     8.46439e-20 
        54.2444     8.83478e-20 
        54.2745     9.22137e-20 
        54.3047     9.62486e-20 
        54.3349      1.0046e-19 
        54.3651     1.04856e-19 
        54.3953     1.09444e-19 
        54.4255     1.14233e-19 
        54.4557     1.19232e-19 
         54.486     1.24449e-19 
        54.5163     1.29895e-19 
        54.5466     1.35579e-19 
        54.5769     1.41511e-19 
        54.6072     1.47703e-19 
        54.6376     1.54166e-19 
        54.6679     1.60912e-19 
        54.6984     1.67952e-19 
        54.7287     1.75302e-19 
        54.7591     1.82973e-19 
        54.7895     1.90978e-19 
          54.82     1.99336e-19 
        54.8505     2.08057e-19 
         54.881     2.17162e-19 
        54.9115     2.26664e-19 
         54.942     2.36583e-19 
        54.9725     2.46935e-19 
         55.003      2.5774e-19 
        55.0336     2.69017e-19 
        55.0642     2.80789e-19 
        55.0948     2.93075e-19 
        55.1254     3.05899e-19 
        55.1561     3.19284e-19 
        55.1867     3.33255e-19 
        55.2174     3.47838e-19 
         55.248     3.62885e-19 
        55.2788     3.78014e-19 
        55.3095     3.93779e-19 
        55.3402     4.10202e-19 
         55.371     4.27307e-19 
        55.4017      4.4513e-19 
        55.4325     4.63692e-19 
        55.4633     4.83031e-19 
        55.4941     5.03175e-19 
         55.525     5.24157e-19 
        55.5558     5.46017e-19 
        55.5867     5.68788e-19 
        55.6176     5.92507e-19 
        55.6485     6.17218e-19 
        55.6794     6.42959e-19 
        55.7104     6.69772e-19 
        55.7413     6.97703e-19 
        55.7723     7.26799e-19 
        55.8033     7.57111e-19 
        55.8343     7.88683e-19 
        55.8653     8.21575e-19 
        55.8964     8.55837e-19 
        55.9275     8.91529e-19 
        55.9586     9.28708e-19 
        55.9896      9.6744e-19 
        56.0208     1.00778e-18 
        56.0519     1.04981e-18 
         56.083     1.09359e-18 
        56.1142      1.1392e-18 
        56.1453     1.18671e-18 
        56.1766     1.23619e-18 
        56.2077     1.28776e-18 
        56.2391     1.34146e-18 
        56.2703      1.3974e-18 
        56.3016     1.45568e-18 
        56.3328     1.51639e-18 
        56.3642     1.57962e-18 
        56.3954      1.6455e-18 
        56.4268     1.71412e-18 
        56.4582      1.7856e-18 
        56.4896     1.86007e-18 
        56.5209     1.93764e-18 
        56.5523     2.01845e-18 
        56.5837     2.10263e-18 
        56.6152     2.19031e-18 
        56.6467     2.28166e-18 
        56.6782      2.3768e-18 
        56.7096     2.47593e-18 
        56.7412     2.57918e-18 
        56.7726     2.68675e-18 
        56.8043     2.79878e-18 
        56.8358     2.91551e-18 
        56.8674     3.03709e-18 
         56.899     3.16374e-18 
        56.9306      3.2957e-18 
        56.9623     3.43314e-18 
        56.9939     3.57631e-18 
        57.0256     3.72545e-18 
        57.0572     3.88081e-18 
         57.089     4.04266e-18 
        57.1207     4.21125e-18 
        57.1524     4.38688e-18 
        57.1841     4.56983e-18 
         57.216      4.7604e-18 
        57.2478     4.95892e-18 
        57.2795     5.16574e-18 
        57.3114     5.38116e-18 
        57.3433     5.60556e-18 
        57.3751     5.83935e-18 
         57.407     6.08288e-18 
        57.4389     6.33655e-18 
        57.4708     6.60081e-18 
        57.5028     6.87607e-18 
        57.5347     7.16285e-18 
        57.5667     7.46154e-18 
        57.5987     7.77273e-18 
        57.6307     8.09687e-18 
        57.6627     8.43454e-18 
        57.6948     8.78628e-18 
        57.7268     9.15272e-18 
        57.7589      9.5344e-18 
         57.791     9.93202e-18 
        57.8231     1.03462e-17 
        57.8552     1.07777e-17 
        57.8874     1.12272e-17 
        57.9196     1.16905e-17 
        57.9517     1.21542e-17 
        57.9839     1.26359e-17 
        58.0162     1.31366e-17 
        58.0485      1.3657e-17 
        58.0806     1.41983e-17 
        58.1129     1.47609e-17 
        58.1453     1.53458e-17 
        58.1776      1.5954e-17 
        58.2099     1.65861e-17 
        58.2422     1.72434e-17 
        58.2746     1.79267e-17 
         58.307      1.8637e-17 
        58.3393     1.93756e-17 
        58.3718     2.01434e-17 
        58.4042     2.09416e-17 
        58.4367     2.17715e-17 
        58.4692     2.26342e-17 
        58.5017     2.35311e-17 
        58.5341     2.44636e-17 
        58.5667     2.54329e-17 
        58.5992     2.64408e-17 
        58.6318     2.74886e-17 
        58.6644     2.85779e-17 
         58.697     2.97103e-17 
        58.7296     3.08876e-17 
        58.7622     3.21117e-17 
        58.7949      3.3384e-17 
        58.8276      3.4707e-17 
        58.8603     3.60823e-17 
         58.893     3.75121e-17 
        58.9256     3.89986e-17 
        58.9584      4.0544e-17 
        58.9912     4.21507e-17 
         59.024     4.38209e-17 
        59.0568     4.55574e-17 
        59.0896     4.73626e-17 
        59.1224     4.92396e-17 
        59.1553     5.11907e-17 
        59.1882     5.32191e-17 
        59.2211     5.53281e-17 
         59.254     5.75206e-17 
        59.2869        5.98e-17 
        59.3199     6.21697e-17 
        59.3529     6.46331e-17 
        59.3858     6.71945e-17 
        59.4187     6.98573e-17 
        59.4518     7.26253e-17 
        59.4849     7.55032e-17 
        59.5179     7.84952e-17 
        59.5509     8.16059e-17 
        59.5841     8.48396e-17 
        59.6171     8.82016e-17 
        59.6503     9.16965e-17 
        59.6835     9.53302e-17 
        59.7166     9.91078e-17 
        59.7498     1.03035e-16 
         59.783     1.07118e-16 
        59.8162     1.11362e-16 
        59.8494     1.15776e-16 
        59.8827     1.20364e-16 
        59.9161     1.25133e-16 
        59.9493     1.30092e-16 
        59.9826     1.35247e-16 
         60.016     1.40607e-16 
        60.0493     1.46178e-16 
        60.0826     1.51971e-16 
        60.1161     1.57992e-16 
        60.1495     1.64253e-16 
        60.1829     1.70762e-16 
        60.2163     1.77529e-16 
        60.2499     1.84563e-16 
        60.2833     1.91878e-16 
        60.3168     1.99482e-16 
        60.3503     2.07386e-16 
        60.3838     2.15604e-16 
        60.4174     2.24148e-16 
        60.4509      2.3303e-16 
        60.4846     2.42264e-16 
        60.5182     2.51864e-16 
        60.5518     2.61845e-16 
        60.5854     2.72221e-16 
        60.6191     2.83008e-16 
        60.6528     2.94223e-16 
        60.6865     3.05882e-16 
        60.7203     3.18002e-16 
         60.754     3.30605e-16 
        60.7878     3.43706e-16 
        60.8215     3.57326e-16 
        60.8554     3.71443e-16 
        60.8891     3.85492e-16 
         60.923     3.99957e-16 
        60.9568     4.14968e-16 
        60.9907     4.30541e-16 
        61.0246     4.46698e-16 
        61.0585     4.63463e-16 
        61.0925     4.80855e-16 
        61.1264     4.98901e-16 
        61.1604     5.17622e-16 
        61.1944     5.37049e-16 
        61.2284     5.57204e-16 
        61.2624     5.78114e-16 
        61.2965     5.99809e-16 
        61.3305     6.22321e-16 
        61.3646     6.45674e-16 
        61.3987     6.69906e-16 
        61.4328     6.95048e-16 
        61.4669     7.21131e-16 
        61.5011     7.48194e-16 
        61.5353     7.76272e-16 
        61.5694     8.05406e-16 
        61.6037     8.35629e-16 
        61.6379      8.6699e-16 
        61.6721     8.99527e-16 
        61.7064     9.33285e-16 
        61.7407     9.68309e-16 
         61.775     1.00464e-15 
        61.8093     1.04235e-15 
        61.8437     1.08147e-15 
        61.8781     1.12206e-15 
        61.9124     1.16416e-15 
        61.9469     1.20785e-15 
        61.9813     1.25318e-15 
        62.0157     1.30021e-15 
        62.0502     1.34901e-15 
        62.0846     1.39963e-15 
        62.1191     1.45216e-15 
        62.1536     1.50666e-15 
        62.1882      1.5632e-15 
        62.2228     1.62186e-15 
        62.2574     1.68273e-15 
        62.2919     1.74587e-15 
        62.3265     1.81139e-15 
        62.3613     1.87937e-15 
        62.3959      1.9499e-15 
        62.4305     2.02308e-15 
        62.4652     2.09901e-15 
