# TLUSTY OSTAR2002+BSTAR2006
# teff = 42500 K (value for the effective temperature for the model. Temperatures are given in K)
# logg = 4.25 log(cm/s2) (value for Log(G) for the model.)
# z = 0.5  (Z/Z0)
#
# column 1: WAVELENGTH (ANGSTROM), Wavelength in Angstrom
# column 2: FLUX (ERG/CM2/S/A), Flux in erg/cm2/s/A
        44.8829     9.41231e-24 
        44.9078     9.74599e-24 
        44.9328     1.02134e-23 
        44.9578     1.07033e-23 
        44.9827     1.12167e-23 
        45.0077     1.17547e-23 
        45.0327     1.23185e-23 
        45.0578     1.29094e-23 
        45.0828     1.35286e-23 
        45.1079     1.41774e-23 
        45.1329     1.48575e-23 
         45.158     1.55701e-23 
        45.1831     1.63169e-23 
        45.2082     1.70995e-23 
        45.2333     1.79197e-23 
        45.2585     1.87792e-23 
        45.2836     1.96799e-23 
        45.3088     2.06239e-23 
        45.3339     2.16132e-23 
        45.3592     2.26497e-23 
        45.3844     2.37362e-23 
        45.4096     2.48746e-23 
        45.4348     2.60677e-23 
        45.4601     2.73181e-23 
        45.4853     2.86285e-23 
        45.5106     3.00016e-23 
        45.5359     3.14405e-23 
        45.5612     3.29485e-23 
        45.5865      3.4529e-23 
        45.6118     3.61853e-23 
        45.6372     3.79208e-23 
        45.6626     3.97397e-23 
         45.688     4.16458e-23 
        45.7133     4.36432e-23 
        45.7388     4.57365e-23 
        45.7642     4.79302e-23 
        45.7896     5.02293e-23 
         45.815     5.26384e-23 
        45.8405     5.51633e-23 
         45.866     5.78091e-23 
        45.8915     6.05818e-23 
         45.917     6.34876e-23 
        45.9425     6.65328e-23 
         45.968      6.9724e-23 
        45.9936     7.30684e-23 
        46.0191      7.6573e-23 
        46.0447     8.02458e-23 
        46.0702     8.40949e-23 
        46.0959     8.81282e-23 
        46.1215     9.23554e-23 
        46.1471     9.67852e-23 
        46.1728     1.01427e-22 
        46.1984     1.06292e-22 
        46.2241     1.11391e-22 
        46.2498     1.16734e-22 
        46.2755     1.22333e-22 
        46.3012       1.282e-22 
        46.3269     1.34349e-22 
        46.3527     1.40793e-22 
        46.3784     1.47546e-22 
        46.4042     1.54623e-22 
          46.43      1.6204e-22 
        46.4558     1.69812e-22 
        46.4816     1.77957e-22 
        46.5074     1.86493e-22 
        46.5333     1.95437e-22 
        46.5591     2.04811e-22 
         46.585     2.14635e-22 
        46.6109     2.24931e-22 
        46.6368     2.35649e-22 
        46.6627     2.46564e-22 
        46.6886     2.57987e-22 
        46.7146      2.6994e-22 
        46.7405     2.82448e-22 
        46.7665     2.95536e-22 
        46.7925     3.09228e-22 
        46.8185     3.23556e-22 
        46.8445     3.38547e-22 
        46.8705     3.54233e-22 
        46.8966     3.70648e-22 
        46.9226     3.87821e-22 
        46.9487     4.05789e-22 
        46.9748     4.24591e-22 
        47.0009     4.44264e-22 
        47.0271     4.64848e-22 
        47.0532     4.86386e-22 
        47.0794     5.08921e-22 
        47.1055     5.32503e-22 
        47.1317     5.57175e-22 
        47.1579      5.8299e-22 
        47.1841     6.10003e-22 
        47.2103     6.38266e-22 
        47.2366     6.67838e-22 
        47.2628     6.98782e-22 
         47.289     7.31161e-22 
        47.3154     7.65035e-22 
        47.3416     8.00486e-22 
        47.3679     8.37574e-22 
        47.3943      8.7638e-22 
        47.4206     9.16986e-22 
        47.4469     9.59475e-22 
        47.4733     1.00393e-21 
        47.4997     1.05045e-21 
        47.5261     1.09912e-21 
        47.5525     1.15004e-21 
        47.5789     1.20333e-21 
        47.6054     1.25908e-21 
        47.6318     1.31742e-21 
        47.6583     1.37846e-21 
        47.6847     1.44233e-21 
        47.7113     1.50916e-21 
        47.7378     1.57908e-21 
        47.7643     1.65225e-21 
        47.7908      1.7288e-21 
        47.8174      1.8089e-21 
         47.844     1.89271e-21 
        47.8706      1.9804e-21 
        47.8971     2.07217e-21 
        47.9238     2.16819e-21 
        47.9505     2.26864e-21 
        47.9771     2.37375e-21 
        48.0037     2.48374e-21 
        48.0304     2.59883e-21 
        48.0571     2.71923e-21 
        48.0838     2.84523e-21 
        48.1105     2.97706e-21 
        48.1372     3.11499e-21 
         48.164     3.25932e-21 
        48.1908     3.41034e-21 
        48.2175     3.56835e-21 
        48.2444     3.73369e-21 
        48.2712     3.90668e-21 
         48.298     4.08769e-21 
        48.3248     4.27709e-21 
        48.3517     4.47526e-21 
        48.3785     4.68262e-21 
        48.4054     4.89959e-21 
        48.4323     5.12659e-21 
        48.4592     5.36414e-21 
        48.4862     5.61266e-21 
        48.5131      5.8731e-21 
          48.54     6.13818e-21 
         48.567     6.41218e-21 
         48.594     6.69839e-21 
         48.621     6.99738e-21 
         48.648     7.30974e-21 
        48.6751     7.63602e-21 
        48.7022     7.97689e-21 
        48.7292     8.33294e-21 
        48.7563     8.70493e-21 
        48.7834     9.09349e-21 
        48.8105     9.49942e-21 
        48.8376     9.92346e-21 
        48.8647     1.03664e-20 
        48.8919     1.08291e-20 
         48.919     1.13125e-20 
        48.9463     1.18175e-20 
        48.9735      1.2345e-20 
        49.0007     1.28961e-20 
        49.0279     1.34717e-20 
        49.0551     1.40731e-20 
        49.0824     1.47012e-20 
        49.1097     1.53575e-20 
         49.137     1.60431e-20 
        49.1643     1.67592e-20 
        49.1916     1.75071e-20 
        49.2189     1.82888e-20 
        49.2463     1.91052e-20 
        49.2737     1.99579e-20 
         49.301     2.08488e-20 
        49.3284     2.17795e-20 
        49.3559     2.27517e-20 
        49.3833     2.37671e-20 
        49.4107     2.48282e-20 
        49.4382     2.59364e-20 
        49.4656     2.70942e-20 
        49.4932     2.83035e-20 
        49.5206      2.9567e-20 
        49.5481     3.08868e-20 
        49.5757     3.22656e-20 
        49.6032     3.37057e-20 
        49.6308     3.52104e-20 
        49.6584     3.67822e-20 
         49.686     3.84238e-20 
        49.7136     4.01391e-20 
        49.7412     4.19308e-20 
        49.7688     4.38025e-20 
        49.7965     4.57577e-20 
        49.8242     4.78003e-20 
        49.8519     4.99339e-20 
        49.8796      5.2163e-20 
        49.9073     5.44915e-20 
         49.935     5.69238e-20 
        49.9627     5.94649e-20 
        49.9906     6.21191e-20 
        50.0183     6.48919e-20 
        50.0462     6.77886e-20 
        50.0739     7.08147e-20 
        50.1018     7.39756e-20 
        50.1296     7.72778e-20 
        50.1574     8.07273e-20 
        50.1853     8.43308e-20 
        50.2132     8.80952e-20 
        50.2412     9.20274e-20 
         50.269     9.61354e-20 
         50.297     1.00427e-19 
        50.3249      1.0491e-19 
        50.3529     1.09593e-19 
        50.3809     1.14484e-19 
        50.4088     1.19595e-19 
        50.4369     1.24933e-19 
        50.4649      1.3051e-19 
         50.493     1.36336e-19 
         50.521     1.42422e-19 
        50.5491     1.48779e-19 
        50.5771     1.55373e-19 
        50.6053     1.62037e-19 
        50.6334     1.68986e-19 
        50.6616     1.76232e-19 
        50.6897     1.83792e-19 
        50.7179     1.91673e-19 
        50.7461     1.99893e-19 
        50.7742     2.08465e-19 
        50.8025     2.17405e-19 
        50.8307     2.26728e-19 
        50.8589     2.36451e-19 
        50.8872     2.46591e-19 
        50.9155     2.57166e-19 
        50.9438     2.68194e-19 
        50.9721     2.79696e-19 
        51.0004      2.9169e-19 
        51.0288     3.04199e-19 
        51.0571     3.17245e-19 
        51.0855      3.3085e-19 
        51.1139     3.45038e-19 
        51.1423     3.59835e-19 
        51.1707     3.75265e-19 
        51.1991     3.91359e-19 
        51.2276     4.08143e-19 
         51.256     4.25646e-19 
        51.2845     4.43898e-19 
        51.3131     4.62934e-19 
        51.3415     4.82788e-19 
          51.37     5.03492e-19 
        51.3987     5.25082e-19 
        51.4272     5.47601e-19 
        51.4557     5.71086e-19 
        51.4844     5.95575e-19 
        51.5129     6.21116e-19 
        51.5416     6.47751e-19 
        51.5703      6.7553e-19 
        51.5989     7.04502e-19 
        51.6276     7.34713e-19 
        51.6563     7.66219e-19 
         51.685     7.99078e-19 
        51.7137     8.33347e-19 
        51.7424     8.69085e-19 
        51.7712     9.06355e-19 
           51.8     9.45221e-19 
        51.8287     9.85758e-19 
        51.8575     1.02803e-18 
        51.8863     1.07212e-18 
        51.9152      1.1181e-18 
         51.944     1.16604e-18 
        51.9729     1.21605e-18 
        52.0018      1.2682e-18 
        52.0307     1.32258e-18 
        52.0596      1.3793e-18 
        52.0885     1.43846e-18 
        52.1175     1.50013e-18 
        52.1464     1.56447e-18 
        52.1754     1.63157e-18 
        52.2044     1.70153e-18 
        52.2334     1.77451e-18 
        52.2624      1.8506e-18 
        52.2915     1.92996e-18 
        52.3205     2.01273e-18 
        52.3496     2.09905e-18 
        52.3787     2.18907e-18 
        52.4078     2.28294e-18 
        52.4369     2.38084e-18 
        52.4661     2.48293e-18 
        52.4952     2.58942e-18 
        52.5244     2.70046e-18 
        52.5536     2.81627e-18 
        52.5828     2.93705e-18 
        52.6121       3.063e-18 
        52.6413     3.19435e-18 
        52.6705     3.33135e-18 
        52.6997     3.47421e-18 
         52.729      3.6232e-18 
        52.7583     3.77857e-18 
        52.7877     3.94061e-18 
         52.817     4.10655e-18 
        52.8463     4.27487e-18 
        52.8758     4.45038e-18 
        52.9051     4.63313e-18 
        52.9345     4.82336e-18 
         52.964      5.0214e-18 
        52.9934     5.22759e-18 
        53.0228     5.44223e-18 
        53.0523     5.66569e-18 
        53.0818     5.89832e-18 
        53.1113     6.14049e-18 
        53.1407     6.39263e-18 
        53.1703     6.65509e-18 
        53.1999     6.92835e-18 
        53.2294     7.21283e-18 
         53.259     7.50899e-18 
        53.2886     7.81733e-18 
        53.3182     8.13829e-18 
        53.3478     8.47246e-18 
        53.3775     8.82034e-18 
        53.4071     9.18249e-18 
        53.4368     9.55952e-18 
        53.4665     9.95205e-18 
        53.4963     1.03607e-17 
         53.526     1.07861e-17 
        53.5557     1.12289e-17 
        53.5855       1.169e-17 
        53.6153       1.217e-17 
         53.645     1.26697e-17 
        53.6749     1.31899e-17 
        53.7047     1.37314e-17 
        53.7345     1.42952e-17 
        53.7644     1.48823e-17 
        53.7942     1.54934e-17 
        53.8242     1.61295e-17 
         53.854     1.67917e-17 
        53.8839     1.74813e-17 
        53.9139     1.81991e-17 
        53.9439     1.89463e-17 
        53.9739     1.97242e-17 
        54.0038     2.05341e-17 
        54.0339     2.13772e-17 
        54.0639     2.22549e-17 
         54.094     2.31687e-17 
         54.124       2.412e-17 
         54.154     2.51104e-17 
        54.1842     2.61415e-17 
        54.2143     2.72148e-17 
        54.2444     2.83322e-17 
        54.2745     2.94955e-17 
        54.3047     3.07066e-17 
        54.3349     3.19673e-17 
        54.3651     3.32801e-17 
        54.3953     3.46465e-17 
        54.4255     3.60691e-17 
        54.4557     3.75501e-17 
         54.486     3.90918e-17 
        54.5163     4.06968e-17 
        54.5466      4.2368e-17 
        54.5769     4.41076e-17 
        54.6072     4.59187e-17 
        54.6376     4.78041e-17 
        54.6679     4.97668e-17 
        54.6984     5.18103e-17 
        54.7287     5.39377e-17 
        54.7591     5.61524e-17 
        54.7895     5.84579e-17 
          54.82     6.08583e-17 
        54.8505      6.3357e-17 
         54.881     6.59583e-17 
        54.9115     6.86666e-17 
         54.942     7.14861e-17 
        54.9725     7.44213e-17 
         55.003     7.74771e-17 
        55.0336     8.06582e-17 
        55.0642     8.39701e-17 
        55.0948     8.74178e-17 
        55.1254     9.10072e-17 
        55.1561      9.4744e-17 
        55.1867      9.8634e-17 
        55.2174     1.02684e-16 
         55.248     1.06854e-16 
        55.2788      1.1104e-16 
        55.3095     1.15391e-16 
        55.3402     1.19913e-16 
         55.371     1.24612e-16 
        55.4017     1.29496e-16 
        55.4325      1.3457e-16 
        55.4633     1.39844e-16 
        55.4941     1.45324e-16 
         55.525     1.51019e-16 
        55.5558     1.56938e-16 
        55.5867     1.63088e-16 
        55.6176     1.69478e-16 
        55.6485     1.76121e-16 
        55.6794     1.83022e-16 
        55.7104     1.90194e-16 
        55.7413     1.97648e-16 
        55.7723     2.05393e-16 
        55.8033     2.13443e-16 
        55.8343     2.21807e-16 
        55.8653     2.30499e-16 
        55.8964     2.39531e-16 
        55.9275     2.48919e-16 
        55.9586     2.58672e-16 
        55.9896      2.6881e-16 
        56.0208     2.79344e-16 
        56.0519     2.90291e-16 
         56.083     3.01667e-16 
        56.1142     3.13488e-16 
        56.1453     3.25774e-16 
        56.1766     3.38541e-16 
        56.2077     3.51808e-16 
        56.2391     3.65593e-16 
        56.2703      3.7992e-16 
        56.3016     3.94808e-16 
        56.3328     4.10281e-16 
        56.3642     4.26359e-16 
        56.3954     4.43068e-16 
        56.4268     4.60429e-16 
        56.4582     4.78472e-16 
        56.4896     4.97223e-16 
        56.5209     5.16709e-16 
        56.5523     5.36957e-16 
        56.5837     5.58001e-16 
        56.6152     5.79866e-16 
        56.6467      6.0259e-16 
        56.6782     6.26205e-16 
        56.7096     6.50746e-16 
        56.7412     6.76246e-16 
        56.7726     7.02749e-16 
        56.8043     7.30286e-16 
        56.8358     7.58905e-16 
        56.8674     7.88645e-16 
         56.899      8.1955e-16 
        56.9306     8.51669e-16 
        56.9623     8.85043e-16 
        56.9939     9.19726e-16 
        57.0256     9.55769e-16 
        57.0572     9.93224e-16 
         57.089     1.03215e-15 
        57.1207     1.07259e-15 
        57.1524     1.11463e-15 
        57.1841      1.1583e-15 
         57.216      1.2037e-15 
        57.2478     1.25086e-15 
        57.2795     1.29989e-15 
        57.3114     1.35083e-15 
        57.3433     1.40376e-15 
        57.3751     1.45877e-15 
         57.407     1.51595e-15 
        57.4389     1.57535e-15 
        57.4708     1.63709e-15 
        57.5028     1.70124e-15 
        57.5347     1.76791e-15 
        57.5667     1.83719e-15 
        57.5987     1.90919e-15 
        57.6307     1.98401e-15 
        57.6627     2.06175e-15 
        57.6948     2.14254e-15 
        57.7268     2.22651e-15 
        57.7589     2.31376e-15 
         57.791     2.40443e-15 
        57.8231     2.49866e-15 
        57.8552     2.59657e-15 
        57.8874     2.69833e-15 
        57.9196     2.80299e-15 
        57.9517     2.90756e-15 
        57.9839     3.01595e-15 
        58.0162     3.12836e-15 
        58.0485     3.24497e-15 
        58.0806     3.36593e-15 
        58.1129     3.49139e-15 
        58.1453     3.62153e-15 
        58.1776     3.75653e-15 
        58.2099     3.89655e-15 
        58.2422      4.0418e-15 
        58.2746     4.19246e-15 
         58.307     4.34872e-15 
        58.3393     4.51083e-15 
        58.3718     4.67896e-15 
        58.4042     4.85337e-15 
        58.4367     5.03428e-15 
        58.4692     5.22193e-15 
        58.5017     5.41657e-15 
        58.5341     5.61849e-15 
        58.5667     5.82791e-15 
        58.5992     6.04514e-15 
        58.6318     6.27048e-15 
        58.6644      6.5042e-15 
         58.697     6.74664e-15 
        58.7296     6.99812e-15 
        58.7622     7.25899e-15 
        58.7949     7.52954e-15 
        58.8276     7.81022e-15 
        58.8603     8.10134e-15 
         58.893     8.40331e-15 
        58.9256     8.71657e-15 
        58.9584     9.04146e-15 
        58.9912     9.37849e-15 
         59.024     9.72805e-15 
        59.0568     1.00907e-14 
        59.0896     1.04668e-14 
        59.1224     1.08569e-14 
        59.1553     1.12616e-14 
        59.1882     1.16814e-14 
        59.2211     1.21168e-14 
         59.254     1.25685e-14 
        59.2869     1.30369e-14 
        59.3199      1.3523e-14 
        59.3529      1.4027e-14 
        59.3858     1.45499e-14 
        59.4187     1.50922e-14 
        59.4518     1.56547e-14 
        59.4849     1.62382e-14 
        59.5179     1.68435e-14 
        59.5509     1.74714e-14 
        59.5841     1.81226e-14 
        59.6171     1.87981e-14 
        59.6503     1.94989e-14 
        59.6835     2.02257e-14 
        59.7166     2.09796e-14 
        59.7498     2.17616e-14 
         59.783     2.25728e-14 
        59.8162     2.34141e-14 
        59.8494     2.42869e-14 
        59.8827     2.51922e-14 
        59.9161     2.61312e-14 
        59.9493     2.71053e-14 
        59.9826     2.81156e-14 
         60.016     2.91636e-14 
        60.0493     3.02507e-14 
        60.0826     3.13782e-14 
        60.1161     3.25478e-14 
        60.1495      3.3761e-14 
        60.1829     3.50195e-14 
        60.2163     3.63249e-14 
        60.2499     3.76788e-14 
        60.2833     3.90833e-14 
        60.3168     4.05401e-14 
        60.3503     4.20513e-14 
        60.3838     4.36188e-14 
        60.4174     4.52446e-14 
        60.4509     4.69312e-14 
        60.4846     4.86804e-14 
        60.5182      5.0495e-14 
        60.5518     5.23772e-14 
        60.5854     5.43296e-14 
        60.6191     5.63547e-14 
        60.6528     5.84552e-14 
        60.6865     6.06342e-14 
        60.7203     6.28942e-14 
         60.754     6.52386e-14 
        60.7878     6.76704e-14 
        60.8215     7.01928e-14 
        60.8554     7.28012e-14 
        60.8891     7.53931e-14 
         60.923     7.80561e-14 
        60.9568     8.08136e-14 
        60.9907     8.36684e-14 
        61.0246     8.66239e-14 
        61.0585     8.96838e-14 
        61.0925     9.28518e-14 
        61.1264      9.6132e-14 
        61.1604     9.95276e-14 
        61.1944     1.03044e-13 
        61.2284     1.06684e-13 
        61.2624     1.10452e-13 
        61.2965     1.14354e-13 
        61.3305     1.18394e-13 
        61.3646     1.22575e-13 
        61.3987     1.26906e-13 
        61.4328     1.31389e-13 
        61.4669      1.3603e-13 
        61.5011     1.40835e-13 
        61.5353      1.4581e-13 
        61.5694     1.50961e-13 
        61.6037     1.56293e-13 
        61.6379     1.61815e-13 
        61.6721     1.67531e-13 
        61.7064     1.73448e-13 
        61.7407     1.79576e-13 
         61.775     1.85919e-13 
        61.8093     1.92487e-13 
        61.8437     1.99286e-13 
        61.8781     2.06326e-13 
        61.9124     2.13614e-13 
        61.9469      2.2116e-13 
        61.9813     2.28972e-13 
        62.0157     2.37061e-13 
        62.0502     2.45435e-13 
        62.0846     2.54105e-13 
        62.1191     2.63082e-13 
        62.1536     2.72375e-13 
        62.1882     2.81997e-13 
        62.2228     2.91957e-13 
        62.2574     3.02271e-13 
        62.2919     3.12948e-13 
        62.3265     3.24004e-13 
        62.3613     3.35448e-13 
        62.3959     3.47298e-13 
        62.4305     3.59567e-13 
        62.4652     3.72268e-13 
