# TLUSTY OSTAR2002+BSTAR2006
# teff = 42500 K (value for the effective temperature for the model. Temperatures are given in K)
# logg = 4 log(cm/s2) (value for Log(G) for the model.)
# z = 0.5  (Z/Z0)
#
# column 1: WAVELENGTH (ANGSTROM), Wavelength in Angstrom
# column 2: FLUX (ERG/CM2/S/A), Flux in erg/cm2/s/A
        44.8829     3.27267e-23 
        44.9078      3.3851e-23 
        44.9328     3.54243e-23 
        44.9578     3.70708e-23 
        44.9827     3.87939e-23 
        45.0077      4.0597e-23 
        45.0327     4.24839e-23 
        45.0578     4.44584e-23 
        45.0828      4.6525e-23 
        45.1079     4.86872e-23 
        45.1329     5.09502e-23 
         45.158     5.33183e-23 
        45.1831     5.57968e-23 
        45.2082       5.839e-23 
        45.2333      6.1104e-23 
        45.2585     6.39442e-23 
        45.2836     6.69162e-23 
        45.3088     7.00263e-23 
        45.3339     7.32812e-23 
        45.3592     7.66871e-23 
        45.3844     8.02516e-23 
        45.4096     8.39816e-23 
        45.4348     8.78851e-23 
        45.4601     9.19699e-23 
        45.4853     9.62448e-23 
        45.5106     1.00718e-22 
        45.5359     1.05399e-22 
        45.5612     1.10298e-22 
        45.5865     1.15425e-22 
        45.6118      1.2079e-22 
        45.6372     1.26404e-22 
        45.6626     1.32279e-22 
         45.688     1.38428e-22 
        45.7133     1.44862e-22 
        45.7388     1.51595e-22 
        45.7642     1.58641e-22 
        45.7896     1.66014e-22 
         45.815     1.73731e-22 
        45.8405     1.81806e-22 
         45.866     1.90255e-22 
        45.8915     1.99099e-22 
         45.917     2.08352e-22 
        45.9425     2.18037e-22 
         45.968     2.28171e-22 
        45.9936     2.38776e-22 
        46.0191     2.49875e-22 
        46.0447     2.61488e-22 
        46.0702     2.73643e-22 
        46.0959     2.86361e-22 
        46.1215     2.99671e-22 
        46.1471     3.13599e-22 
        46.1728     3.28175e-22 
        46.1984     3.43429e-22 
        46.2241     3.59392e-22 
        46.2498     3.76096e-22 
        46.2755     3.93577e-22 
        46.3012     4.11869e-22 
        46.3269     4.31013e-22 
        46.3527     4.51046e-22 
        46.3784      4.7201e-22 
        46.4042     4.93949e-22 
          46.43     5.16907e-22 
        46.4558     5.40935e-22 
        46.4816     5.66075e-22 
        46.5074     5.92387e-22 
        46.5333     6.19921e-22 
        46.5591     6.48734e-22 
         46.585     6.78888e-22 
        46.6109     7.10441e-22 
        46.6368     7.43279e-22 
        46.6627     7.76762e-22 
        46.6886     8.11772e-22 
        46.7146     8.48361e-22 
        46.7405     8.86598e-22 
        46.7665     9.26562e-22 
        46.7925     9.68324e-22 
        46.8185     1.01197e-21 
        46.8445     1.05758e-21 
        46.8705     1.10525e-21 
        46.8966     1.15507e-21 
        46.9226     1.20713e-21 
        46.9487     1.26154e-21 
        46.9748      1.3184e-21 
        47.0009     1.37782e-21 
        47.0271     1.43992e-21 
        47.0532     1.50482e-21 
        47.0794     1.57265e-21 
        47.1055     1.64354e-21 
        47.1317     1.71761e-21 
        47.1579     1.79503e-21 
        47.1841     1.87594e-21 
        47.2103      1.9605e-21 
        47.2366     2.04885e-21 
        47.2628     2.14121e-21 
         47.289     2.23772e-21 
        47.3154     2.33857e-21 
        47.3416     2.44398e-21 
        47.3679     2.55415e-21 
        47.3943     2.66926e-21 
        47.4206     2.78957e-21 
        47.4469     2.91529e-21 
        47.4733      3.0467e-21 
        47.4997     3.18403e-21 
        47.5261     3.32754e-21 
        47.5525     3.47751e-21 
        47.5789     3.63426e-21 
        47.6054     3.79807e-21 
        47.6318     3.96925e-21 
        47.6583     4.14816e-21 
        47.6847     4.33514e-21 
        47.7113     4.53053e-21 
        47.7378     4.73473e-21 
        47.7643     4.94815e-21 
        47.7908     5.17116e-21 
        47.8174     5.40425e-21 
         47.844     5.64782e-21 
        47.8706     5.90238e-21 
        47.8971     6.16844e-21 
        47.9238     6.44646e-21 
        47.9505       6.737e-21 
        47.9771     7.04067e-21 
        48.0037     7.35801e-21 
        48.0304     7.68966e-21 
        48.0571     8.03625e-21 
        48.0838     8.39847e-21 
        48.1105     8.77701e-21 
        48.1372     9.17262e-21 
         48.164     9.58606e-21 
        48.1908     1.00181e-20 
        48.2175     1.04697e-20 
        48.2444     1.09415e-20 
        48.2712     1.14347e-20 
         48.298     1.19501e-20 
        48.3248     1.24888e-20 
        48.3517     1.30516e-20 
        48.3785     1.36399e-20 
        48.4054     1.42547e-20 
        48.4323     1.48972e-20 
        48.4592     1.55687e-20 
        48.4862     1.62704e-20 
        48.5131     1.70048e-20 
          48.54     1.77531e-20 
         48.567     1.85266e-20 
         48.594     1.93337e-20 
         48.621     2.01759e-20 
         48.648      2.1055e-20 
        48.6751     2.19722e-20 
        48.7022     2.29294e-20 
        48.7292     2.39284e-20 
        48.7563      2.4971e-20 
        48.7834     2.60589e-20 
        48.8105     2.71941e-20 
        48.8376     2.83789e-20 
        48.8647     2.96154e-20 
        48.8919     3.09055e-20 
         48.919     3.22521e-20 
        48.9463     3.36571e-20 
        48.9735     3.51235e-20 
        49.0007     3.66537e-20 
        49.0279     3.82506e-20 
        49.0551     3.99172e-20 
        49.0824     4.16561e-20 
        49.1097     4.34709e-20 
         49.137     4.53649e-20 
        49.1643     4.73413e-20 
        49.1916     4.94037e-20 
        49.2189     5.15563e-20 
        49.2463     5.38024e-20 
        49.2737     5.61462e-20 
         49.301     5.85925e-20 
        49.3284     6.11451e-20 
        49.3559      6.3809e-20 
        49.3833      6.6589e-20 
        49.4107     6.94902e-20 
        49.4382     7.25176e-20 
        49.4656     7.56769e-20 
        49.4932     7.89738e-20 
        49.5206     8.24147e-20 
        49.5481     8.60053e-20 
        49.5757     8.97523e-20 
        49.6032     9.36625e-20 
        49.6308     9.77429e-20 
        49.6584     1.02001e-19 
         49.686     1.06445e-19 
        49.7136     1.11083e-19 
        49.7412     1.15922e-19 
        49.7688     1.20973e-19 
        49.7965     1.26243e-19 
        49.8242     1.31743e-19 
        49.8519     1.37482e-19 
        49.8796     1.43472e-19 
        49.9073     1.49723e-19 
         49.935     1.56246e-19 
        49.9627     1.63054e-19 
        49.9906     1.70156e-19 
        50.0183      1.7757e-19 
        50.0462     1.85306e-19 
        50.0739     1.93379e-19 
        50.1018     2.01804e-19 
        50.1296     2.10596e-19 
        50.1574     2.19771e-19 
        50.1853     2.29347e-19 
        50.2132     2.39339e-19 
        50.2412     2.49765e-19 
         50.269     2.60647e-19 
         50.297     2.72003e-19 
        50.3249     2.83853e-19 
        50.3529     2.96219e-19 
        50.3809     3.09125e-19 
        50.4088     3.22592e-19 
        50.4369     3.36647e-19 
        50.4649     3.51313e-19 
         50.493     3.66619e-19 
         50.521     3.82593e-19 
        50.5491      3.9926e-19 
        50.5771     4.16541e-19 
        50.6053     4.34027e-19 
        50.6334     4.52245e-19 
        50.6616     4.71228e-19 
        50.6897     4.91008e-19 
        50.7179     5.11616e-19 
        50.7461      5.3309e-19 
        50.7742     5.55466e-19 
        50.8025     5.78782e-19 
        50.8307     6.03075e-19 
        50.8589     6.28389e-19 
        50.8872     6.54763e-19 
        50.9155     6.82246e-19 
        50.9438     7.10884e-19 
        50.9721     7.40722e-19 
        51.0004     7.71814e-19 
        51.0288     8.04209e-19 
        51.0571     8.37965e-19 
        51.0855     8.73138e-19 
        51.1139     9.09786e-19 
        51.1423     9.47973e-19 
        51.1707     9.87761e-19 
        51.1991     1.02922e-18 
        51.2276     1.07242e-18 
         51.256     1.11744e-18 
        51.2845     1.16434e-18 
        51.3131     1.21321e-18 
        51.3415     1.26414e-18 
          51.37      1.3172e-18 
        51.3987     1.37248e-18 
        51.4272      1.4301e-18 
        51.4557     1.49012e-18 
        51.4844     1.55266e-18 
        51.5129     1.61784e-18 
        51.5416     1.68574e-18 
        51.5703     1.75649e-18 
        51.5989     1.83022e-18 
        51.6276     1.90704e-18 
        51.6563     1.98709e-18 
         51.685      2.0705e-18 
        51.7137      2.1574e-18 
        51.7424     2.24796e-18 
        51.7712     2.34231e-18 
           51.8     2.44062e-18 
        51.8287     2.54307e-18 
        51.8575     2.64982e-18 
        51.8863     2.76103e-18 
        51.9152     2.87693e-18 
         51.944     2.99768e-18 
        51.9729     3.12352e-18 
        52.0018      3.2546e-18 
        52.0307     3.39122e-18 
        52.0596     3.53357e-18 
        52.0885     3.68187e-18 
        52.1175     3.83641e-18 
        52.1464     3.99745e-18 
        52.1754     4.16524e-18 
        52.2044     4.34007e-18 
        52.2334     4.52224e-18 
        52.2624     4.71205e-18 
        52.2915     4.90983e-18 
        52.3205     5.11591e-18 
        52.3496     5.33065e-18 
        52.3787     5.55441e-18 
        52.4078     5.78755e-18 
        52.4369     6.03046e-18 
        52.4661     6.28357e-18 
        52.4952     6.54732e-18 
        52.5244     6.82215e-18 
        52.5536      7.1085e-18 
        52.5828     7.40687e-18 
        52.6121     7.71775e-18 
        52.6413     8.04171e-18 
        52.6705     8.37925e-18 
        52.6997     8.73096e-18 
         52.729     9.09743e-18 
        52.7583     9.47927e-18 
        52.7877     9.87715e-18 
         52.817     1.02846e-17 
        52.8463     1.06981e-17 
        52.8758     1.11289e-17 
        52.9051     1.15771e-17 
        52.9345     1.20433e-17 
         52.964     1.25282e-17 
        52.9934     1.30328e-17 
        53.0228     1.35576e-17 
        53.0523     1.41037e-17 
        53.0818     1.46716e-17 
        53.1113     1.52624e-17 
        53.1407      1.5877e-17 
        53.1703     1.65163e-17 
        53.1999     1.71815e-17 
        53.2294     1.78734e-17 
         53.259     1.85932e-17 
        53.2886      1.9342e-17 
        53.3182     2.01209e-17 
        53.3478     2.09312e-17 
        53.3775     2.17742e-17 
        53.4071     2.26511e-17 
        53.4368     2.35631e-17 
        53.4665     2.45121e-17 
        53.4963     2.54992e-17 
         53.526      2.6526e-17 
        53.5557     2.75944e-17 
        53.5855     2.87056e-17 
        53.6153     2.98615e-17 
         53.645     3.10641e-17 
        53.6749     3.23151e-17 
        53.7047     3.36164e-17 
        53.7345     3.49701e-17 
        53.7644     3.63785e-17 
        53.7942     3.78435e-17 
        53.8242     3.93675e-17 
         53.854     4.09528e-17 
        53.8839      4.2602e-17 
        53.9139     4.43178e-17 
        53.9439     4.61024e-17 
        53.9739      4.7959e-17 
        54.0038     4.98903e-17 
        54.0339     5.18993e-17 
        54.0639     5.39894e-17 
         54.094     5.61636e-17 
         54.124     5.84254e-17 
         54.154     6.07783e-17 
        54.1842     6.32258e-17 
        54.2143      6.5772e-17 
        54.2444     6.84207e-17 
        54.2745     7.11761e-17 
        54.3047     7.40423e-17 
        54.3349      7.7024e-17 
        54.3651     8.01259e-17 
        54.3953     8.33528e-17 
        54.4255     8.67094e-17 
        54.4557     9.02014e-17 
         54.486     9.38338e-17 
        54.5163     9.76123e-17 
        54.5466     1.01543e-16 
        54.5769     1.05633e-16 
        54.6072     1.09887e-16 
        54.6376     1.14312e-16 
        54.6679     1.18915e-16 
        54.6984     1.23704e-16 
        54.7287     1.28686e-16 
        54.7591     1.33868e-16 
        54.7895      1.3926e-16 
          54.82     1.44868e-16 
        54.8505     1.50701e-16 
         54.881      1.5677e-16 
        54.9115     1.63083e-16 
         54.942     1.69651e-16 
        54.9725     1.76483e-16 
         55.003      1.8359e-16 
        55.0336     1.90983e-16 
        55.0642     1.98674e-16 
        55.0948     2.06675e-16 
        55.1254     2.14997e-16 
        55.1561     2.23656e-16 
        55.1867     2.32663e-16 
        55.2174     2.42032e-16 
         55.248     2.51675e-16 
        55.2788     2.61362e-16 
        55.3095     2.71425e-16 
        55.3402     2.81875e-16 
         55.371     2.92728e-16 
        55.4017     3.03999e-16 
        55.4325     3.15703e-16 
        55.4633     3.27858e-16 
        55.4941     3.40481e-16 
         55.525     3.53588e-16 
        55.5558     3.67203e-16 
        55.5867      3.8134e-16 
        55.6176     3.96021e-16 
        55.6485     4.11269e-16 
        55.6794     4.27104e-16 
        55.7104     4.43548e-16 
        55.7413     4.60624e-16 
        55.7723     4.78359e-16 
        55.8033     4.96776e-16 
        55.8343     5.15902e-16 
        55.8653     5.35764e-16 
        55.8964     5.56392e-16 
        55.9275     5.77814e-16 
        55.9586     6.00059e-16 
        55.9896     6.23164e-16 
        56.0208     6.47154e-16 
        56.0519      6.7207e-16 
         56.083     6.97947e-16 
        56.1142     7.24818e-16 
        56.1453     7.52726e-16 
        56.1766     7.81705e-16 
        56.2077     8.11803e-16 
        56.2391     8.43055e-16 
        56.2703     8.75514e-16 
        56.3016     9.09222e-16 
        56.3328      9.4423e-16 
        56.3642     9.80582e-16 
        56.3954     1.01834e-15 
        56.4268     1.05754e-15 
        56.4582     1.09826e-15 
        56.4896     1.14054e-15 
        56.5209     1.18446e-15 
        56.5523     1.23006e-15 
        56.5837     1.27742e-15 
        56.6152      1.3266e-15 
        56.6467     1.37767e-15 
        56.6782     1.43071e-15 
        56.7096      1.4858e-15 
        56.7412       1.543e-15 
        56.7726     1.60241e-15 
        56.8043     1.66411e-15 
        56.8358     1.72817e-15 
        56.8674     1.79471e-15 
         56.899      1.8638e-15 
        56.9306     1.93557e-15 
        56.9623     2.01008e-15 
        56.9939     2.08748e-15 
        57.0256     2.16784e-15 
        57.0572     2.25131e-15 
         57.089     2.33799e-15 
        57.1207       2.428e-15 
        57.1524     2.52148e-15 
        57.1841     2.61857e-15 
         57.216     2.71937e-15 
        57.2478     2.82407e-15 
        57.2795     2.93282e-15 
        57.3114     3.04572e-15 
        57.3433     3.16298e-15 
        57.3751     3.28477e-15 
         57.407     3.41123e-15 
        57.4389     3.54257e-15 
        57.4708     3.67896e-15 
        57.5028      3.8206e-15 
        57.5347      3.9677e-15 
        57.5667     4.12046e-15 
        57.5987      4.2791e-15 
        57.6307     4.44384e-15 
        57.6627     4.61493e-15 
        57.6948     4.79261e-15 
        57.7268     4.97714e-15 
        57.7589     5.16875e-15 
         57.791     5.36776e-15 
        57.8231     5.57443e-15 
        57.8552     5.78905e-15 
        57.8874     6.01193e-15 
        57.9196     6.24111e-15 
        57.9517      6.4702e-15 
        57.9839     6.70749e-15 
        58.0162     6.95347e-15 
        58.0485     7.20849e-15 
        58.0806     7.47289e-15 
        58.1129     7.74695e-15 
        58.1453     8.03106e-15 
        58.1776     8.32561e-15 
        58.2099     8.63096e-15 
        58.2422      8.9475e-15 
        58.2746     9.27565e-15 
         58.307     9.61583e-15 
        58.3393     9.96851e-15 
        58.3718     1.03341e-14 
        58.4042     1.07131e-14 
        58.4367      1.1106e-14 
        58.4692     1.15133e-14 
        58.5017     1.19356e-14 
        58.5341     1.23734e-14 
        58.5667     1.28271e-14 
        58.5992     1.32975e-14 
        58.6318     1.37852e-14 
        58.6644     1.42908e-14 
         58.697     1.48149e-14 
        58.7296     1.53582e-14 
        58.7622     1.59215e-14 
        58.7949     1.65054e-14 
        58.8276     1.71107e-14 
        58.8603     1.77383e-14 
         58.893     1.83889e-14 
        58.9256     1.90633e-14 
        58.9584     1.97625e-14 
        58.9912     2.04872e-14 
         59.024     2.12386e-14 
        59.0568     2.20176e-14 
        59.0896      2.2825e-14 
        59.1224     2.36623e-14 
        59.1553       2.453e-14 
        59.1882     2.54296e-14 
        59.2211     2.63623e-14 
         59.254     2.73291e-14 
        59.2869     2.83314e-14 
        59.3199     2.93704e-14 
        59.3529     3.04476e-14 
        59.3858     3.15643e-14 
        59.4187      3.2722e-14 
        59.4518     3.39219e-14 
        59.4849      3.5166e-14 
        59.5179     3.64558e-14 
        59.5509     3.77929e-14 
        59.5841     3.91789e-14 
        59.6171     4.06159e-14 
        59.6503     4.21054e-14 
        59.6835     4.36496e-14 
        59.7166     4.52505e-14 
        59.7498       4.691e-14 
         59.783     4.86305e-14 
        59.8162      5.0414e-14 
        59.8494      5.2263e-14 
        59.8827     5.41799e-14 
        59.9161     5.61667e-14 
        59.9493     5.82268e-14 
        59.9826     6.03622e-14 
         60.016     6.25759e-14 
        60.0493      6.4871e-14 
        60.0826     6.72502e-14 
        60.1161     6.97164e-14 
        60.1495     7.22732e-14 
        60.1829     7.49242e-14 
        60.2163     7.76718e-14 
        60.2499     8.05204e-14 
        60.2833     8.34736e-14 
        60.3168     8.65351e-14 
        60.3503     8.97087e-14 
        60.3838     9.29988e-14 
        60.4174     9.64094e-14 
        60.4509     9.99456e-14 
        60.4846     1.03611e-13 
        60.5182     1.07411e-13 
        60.5518      1.1135e-13 
        60.5854     1.15434e-13 
        60.6191     1.19667e-13 
        60.6528     1.24056e-13 
        60.6865     1.28606e-13 
        60.7203     1.33323e-13 
         60.754     1.38213e-13 
        60.7878     1.43281e-13 
        60.8215     1.48536e-13 
        60.8554     1.53968e-13 
        60.8891     1.59366e-13 
         60.923     1.64911e-13 
        60.9568      1.7065e-13 
        60.9907     1.76588e-13 
        61.0246     1.82732e-13 
        61.0585     1.89091e-13 
        61.0925      1.9567e-13 
        61.1264     2.02479e-13 
        61.1604     2.09524e-13 
        61.1944     2.16815e-13 
        61.2284      2.2436e-13 
        61.2624     2.32166e-13 
        61.2965     2.40245e-13 
        61.3305     2.48605e-13 
        61.3646     2.57255e-13 
        61.3987     2.66207e-13 
        61.4328     2.75471e-13 
        61.4669     2.85056e-13 
        61.5011     2.94974e-13 
        61.5353     3.05238e-13 
        61.5694     3.15861e-13 
        61.6037     3.26851e-13 
        61.6379     3.38225e-13 
        61.6721     3.49994e-13 
        61.7064     3.62173e-13 
        61.7407     3.74774e-13 
         61.775     3.87815e-13 
        61.8093      4.0131e-13 
        61.8437     4.15273e-13 
        61.8781     4.29723e-13 
        61.9124     4.44677e-13 
        61.9469     4.60149e-13 
        61.9813     4.76161e-13 
        62.0157      4.9273e-13 
        62.0502     5.09875e-13 
        62.0846     5.27618e-13 
        62.1191     5.45977e-13 
        62.1536     5.64975e-13 
        62.1882     5.84634e-13 
        62.2228     6.04976e-13 
        62.2574     6.26027e-13 
        62.2919     6.47812e-13 
        62.3265     6.70354e-13 
        62.3613     6.93677e-13 
        62.3959     7.17815e-13 
        62.4305     7.42795e-13 
        62.4652     7.68641e-13 
