# TLUSTY OSTAR2002+BSTAR2006
# teff = 42500 K (value for the effective temperature for the model. Temperatures are given in K)
# logg = 3.75 log(cm/s2) (value for Log(G) for the model.)
# z = 0.5  (Z/Z0)
#
# column 1: WAVELENGTH (ANGSTROM), Wavelength in Angstrom
# column 2: FLUX (ERG/CM2/S/A), Flux in erg/cm2/s/A
        44.8829     1.72357e-22 
        44.9078     1.78029e-22 
        44.9328     1.85956e-22 
        44.9578     1.94236e-22 
        44.9827     2.02887e-22 
        45.0077     2.11921e-22 
        45.0327     2.21359e-22 
        45.0578     2.31217e-22 
        45.0828     2.41513e-22 
        45.1079     2.52268e-22 
        45.1329     2.63501e-22 
         45.158     2.75235e-22 
        45.1831     2.87493e-22 
        45.2082     3.00294e-22 
        45.2333     3.13667e-22 
        45.2585     3.27635e-22 
        45.2836     3.42225e-22 
        45.3088     3.57464e-22 
        45.3339     3.73384e-22 
        45.3592      3.9001e-22 
        45.3844     4.07377e-22 
        45.4096     4.25518e-22 
        45.4348     4.44467e-22 
        45.4601      4.6426e-22 
        45.4853     4.84935e-22 
        45.5106     5.06529e-22 
        45.5359     5.29086e-22 
        45.5612     5.52646e-22 
        45.5865     5.77257e-22 
        45.6118     6.02962e-22 
        45.6372     6.29813e-22 
        45.6626      6.5786e-22 
         45.688     6.87153e-22 
        45.7133     7.17754e-22 
        45.7388     7.49715e-22 
        45.7642     7.83101e-22 
        45.7896     8.17975e-22 
         45.815     8.54399e-22 
        45.8405     8.92449e-22 
         45.866     9.32187e-22 
        45.8915     9.73699e-22 
         45.917     1.01706e-21 
        45.9425     1.06235e-21 
         45.968     1.10966e-21 
        45.9936     1.15907e-21 
        46.0191     1.21069e-21 
        46.0447      1.2646e-21 
        46.0702     1.32092e-21 
        46.0959     1.37974e-21 
        46.1215     1.44118e-21 
        46.1471     1.50536e-21 
        46.1728     1.57239e-21 
        46.1984     1.64242e-21 
        46.2241     1.71555e-21 
        46.2498     1.79194e-21 
        46.2755     1.87174e-21 
        46.3012      1.9551e-21 
        46.3269     2.04216e-21 
        46.3527      2.1331e-21 
        46.3784     2.22809e-21 
        46.4042      2.3273e-21 
          46.43     2.43095e-21 
        46.4558     2.53921e-21 
        46.4816     2.65227e-21 
        46.5074     2.77038e-21 
        46.5333     2.89375e-21 
        46.5591     3.02261e-21 
         46.585     3.15722e-21 
        46.6109     3.29781e-21 
        46.6368     3.44404e-21 
        46.6627     3.59351e-21 
        46.6886     3.74957e-21 
        46.7146     3.91243e-21 
        46.7405     4.08236e-21 
        46.7665     4.25965e-21 
        46.7925     4.44467e-21 
        46.8185     4.63771e-21 
        46.8445     4.83911e-21 
        46.8705     5.04929e-21 
        46.8966      5.2686e-21 
        46.9226     5.49742e-21 
        46.9487     5.73618e-21 
        46.9748     5.98532e-21 
        47.0009     6.24526e-21 
        47.0271     6.51649e-21 
        47.0532     6.79953e-21 
        47.0794     7.09482e-21 
        47.1055     7.40299e-21 
        47.1317     7.72449e-21 
        47.1579        8.06e-21 
        47.1841     8.41006e-21 
        47.2103     8.77531e-21 
        47.2366     9.15642e-21 
        47.2628     9.55412e-21 
         47.289     9.96908e-21 
        47.3154      1.0402e-20 
        47.3416     1.08538e-20 
        47.3679     1.13252e-20 
        47.3943     1.18171e-20 
        47.4206     1.23303e-20 
        47.4469     1.28659e-20 
        47.4733     1.34246e-20 
        47.4997     1.40077e-20 
        47.5261     1.46161e-20 
        47.5525     1.52508e-20 
        47.5789     1.59132e-20 
        47.6054     1.66044e-20 
        47.6318     1.73255e-20 
        47.6583     1.80781e-20 
        47.6847     1.88632e-20 
        47.7113     1.96825e-20 
        47.7378     2.05373e-20 
        47.7643     2.14293e-20 
        47.7908     2.23599e-20 
        47.8174     2.33311e-20 
         47.844     2.43444e-20 
        47.8706     2.54016e-20 
        47.8971      2.6505e-20 
        47.9238     2.76561e-20 
        47.9505     2.88572e-20 
        47.9771     3.01106e-20 
        48.0037     3.14182e-20 
        48.0304     3.27829e-20 
        48.0571     3.42066e-20 
        48.0838     3.56923e-20 
        48.1105     3.72425e-20 
        48.1372       3.886e-20 
         48.164     4.05477e-20 
        48.1908     4.23087e-20 
        48.2175     4.41464e-20 
        48.2444     4.60637e-20 
        48.2712     4.80642e-20 
         48.298     5.01517e-20 
        48.3248     5.23301e-20 
        48.3517     5.46028e-20 
        48.3785     5.69742e-20 
        48.4054     5.94488e-20 
        48.4323     6.20309e-20 
        48.4592     6.47248e-20 
        48.4862     6.75359e-20 
        48.5131     7.04733e-20 
          48.54     7.34713e-20 
         48.567      7.6571e-20 
         48.594     7.98014e-20 
         48.621     8.31681e-20 
         48.648     8.66771e-20 
        48.6751     9.03339e-20 
        48.7022     9.41451e-20 
        48.7292      9.8117e-20 
        48.7563     1.02257e-19 
        48.7834     1.06571e-19 
        48.8105     1.11067e-19 
        48.8376     1.15753e-19 
        48.8647     1.20637e-19 
        48.8919     1.25726e-19 
         48.919     1.31031e-19 
        48.9463     1.36559e-19 
        48.9735      1.4232e-19 
        49.0007     1.48324e-19 
        49.0279     1.54582e-19 
        49.0551     1.61104e-19 
        49.0824     1.67901e-19 
        49.1097     1.74985e-19 
         49.137     1.82367e-19 
        49.1643     1.90062e-19 
        49.1916      1.9808e-19 
        49.2189     2.06437e-19 
        49.2463     2.15146e-19 
        49.2737     2.24223e-19 
         49.301     2.33684e-19 
        49.3284     2.43543e-19 
        49.3559     2.53816e-19 
        49.3833     2.64526e-19 
        49.4107     2.75687e-19 
        49.4382     2.87317e-19 
        49.4656      2.9944e-19 
        49.4932     3.12072e-19 
        49.5206     3.25238e-19 
        49.5481     3.38961e-19 
        49.5757     3.53262e-19 
        49.6032     3.68165e-19 
        49.6308     3.83699e-19 
        49.6584     3.99887e-19 
         49.686     4.16757e-19 
        49.7136     4.34341e-19 
        49.7412     4.52664e-19 
        49.7688     4.71763e-19 
        49.7965     4.91667e-19 
        49.8242      5.1241e-19 
        49.8519     5.34027e-19 
        49.8796     5.56558e-19 
        49.9073      5.8004e-19 
         49.935     6.04512e-19 
        49.9627     6.30016e-19 
        49.9906     6.56596e-19 
        50.0183     6.84297e-19 
        50.0462     7.13167e-19 
        50.0739     7.43257e-19 
        50.1018     7.74614e-19 
        50.1296     8.07296e-19 
        50.1574     8.41356e-19 
        50.1853     8.76853e-19 
        50.2132     9.13847e-19 
        50.2412       9.524e-19 
         50.269     9.92583e-19 
         50.297     1.03446e-18 
        50.3249      1.0781e-18 
        50.3529     1.12359e-18 
        50.3809     1.17099e-18 
        50.4088      1.2204e-18 
        50.4369     1.27188e-18 
        50.4649     1.32554e-18 
         50.493     1.38147e-18 
         50.521     1.43976e-18 
        50.5491      1.5005e-18 
        50.5771     1.56345e-18 
        50.6053     1.62727e-18 
        50.6334     1.69371e-18 
        50.6616     1.76284e-18 
        50.6897     1.83481e-18 
        50.7179     1.90972e-18 
        50.7461     1.98768e-18 
        50.7742     2.06883e-18 
        50.8025     2.15328e-18 
        50.8307     2.24118e-18 
        50.8589     2.33268e-18 
        50.8872     2.42791e-18 
        50.9155     2.52703e-18 
        50.9438      2.6302e-18 
        50.9721     2.73757e-18 
        51.0004     2.84933e-18 
        51.0288     2.96565e-18 
        51.0571     3.08673e-18 
        51.0855     3.21274e-18 
        51.1139     3.34391e-18 
        51.1423     3.48041e-18 
        51.1707     3.62249e-18 
        51.1991     3.77038e-18 
        51.2276     3.92431e-18 
         51.256     4.08451e-18 
        51.2845     4.25126e-18 
        51.3131     4.42481e-18 
        51.3415     4.60545e-18 
          51.37     4.79347e-18 
        51.3987     4.98915e-18 
        51.4272     5.19283e-18 
        51.4557     5.40483e-18 
        51.4844     5.62547e-18 
        51.5129     5.85514e-18 
        51.5416     6.09416e-18 
        51.5703     6.34294e-18 
        51.5989     6.60192e-18 
        51.6276     6.87142e-18 
        51.6563     7.15194e-18 
         51.685     7.44391e-18 
        51.7137      7.7478e-18 
        51.7424     8.06411e-18 
        51.7712     8.39331e-18 
           51.8     8.73595e-18 
        51.8287      9.0926e-18 
        51.8575     9.46381e-18 
        51.8863     9.85017e-18 
        51.9152     1.02523e-17 
         51.944     1.06708e-17 
        51.9729     1.11065e-17 
        52.0018     1.15599e-17 
        52.0307     1.20318e-17 
        52.0596      1.2523e-17 
        52.0885     1.30342e-17 
        52.1175     1.35663e-17 
        52.1464     1.41202e-17 
        52.1754     1.46967e-17 
        52.2044     1.52966e-17 
        52.2334      1.5921e-17 
        52.2624      1.6571e-17 
        52.2915     1.72476e-17 
        52.3205     1.79516e-17 
        52.3496     1.86845e-17 
        52.3787     1.94473e-17 
        52.4078     2.02412e-17 
        52.4369     2.10675e-17 
        52.4661     2.19275e-17 
        52.4952     2.28228e-17 
        52.5244     2.37545e-17 
        52.5536     2.47242e-17 
        52.5828     2.57337e-17 
        52.6121     2.67842e-17 
        52.6413     2.78776e-17 
        52.6705     2.90157e-17 
        52.6997     3.02003e-17 
         52.729     3.14332e-17 
        52.7583     3.27164e-17 
        52.7877      3.4052e-17 
         52.817     3.54202e-17 
        52.8463     3.68098e-17 
        52.8758      3.8256e-17 
        52.9051     3.97593e-17 
        52.9345     4.13215e-17 
         52.964     4.29451e-17 
        52.9934     4.46327e-17 
        53.0228     4.63866e-17 
        53.0523     4.82093e-17 
        53.0818     5.01035e-17 
        53.1113     5.20722e-17 
        53.1407     5.41184e-17 
        53.1703     5.62448e-17 
        53.1999     5.84549e-17 
        53.2294     6.07518e-17 
         53.259     6.31389e-17 
        53.2886     6.56201e-17 
        53.3182     6.81984e-17 
        53.3478     7.08782e-17 
        53.3775     7.36632e-17 
        53.4071     7.65578e-17 
        53.4368     7.95659e-17 
        53.4665     8.26926e-17 
        53.4963     8.59417e-17 
         53.526     8.93187e-17 
        53.5557     9.28284e-17 
        53.5855     9.64759e-17 
        53.6153     1.00267e-16 
         53.645     1.04207e-16 
        53.6749     1.08301e-16 
        53.7047     1.12557e-16 
        53.7345      1.1698e-16 
        53.7644     1.21576e-16 
        53.7942     1.26354e-16 
        53.8242     1.31318e-16 
         53.854     1.36479e-16 
        53.8839     1.41842e-16 
        53.9139     1.47415e-16 
        53.9439     1.53207e-16 
        53.9739     1.59227e-16 
        54.0038     1.65483e-16 
        54.0339     1.71986e-16 
        54.0639     1.78745e-16 
         54.094     1.85767e-16 
         54.124     1.93066e-16 
         54.154     2.00654e-16 
        54.1842     2.08538e-16 
        54.2143     2.16732e-16 
        54.2444     2.25248e-16 
        54.2745     2.34098e-16 
        54.3047     2.43298e-16 
        54.3349     2.52857e-16 
        54.3651     2.62793e-16 
        54.3953      2.7312e-16 
        54.4255     2.83851e-16 
        54.4557     2.95005e-16 
         54.486     3.06597e-16 
        54.5163     3.18643e-16 
        54.5466     3.31164e-16 
        54.5769     3.44178e-16 
        54.6072     3.57702e-16 
        54.6376     3.71758e-16 
        54.6679     3.86364e-16 
        54.6984     4.01546e-16 
        54.7287     4.17324e-16 
        54.7591     4.33723e-16 
        54.7895     4.50766e-16 
          54.82     4.68477e-16 
        54.8505     4.86886e-16 
         54.881     5.06016e-16 
        54.9115       5.259e-16 
         54.942     5.46565e-16 
        54.9725     5.68042e-16 
         55.003     5.90363e-16 
        55.0336     6.13559e-16 
        55.0642     6.37669e-16 
        55.0948     6.62725e-16 
        55.1254     6.88766e-16 
        55.1561      7.1583e-16 
        55.1867     7.43957e-16 
        55.2174     7.73189e-16 
         55.248      8.0327e-16 
        55.2788     8.33522e-16 
        55.3095     8.64924e-16 
        55.3402     8.97508e-16 
         55.371      9.3132e-16 
        55.4017     9.66408e-16 
        55.4325     1.00281e-15 
        55.4633     1.04059e-15 
        55.4941      1.0798e-15 
         55.525     1.12047e-15 
        55.5558     1.16269e-15 
        55.5867     1.20649e-15 
        55.6176     1.25193e-15 
        55.6485     1.29911e-15 
        55.6794     1.34805e-15 
        55.7104     1.39883e-15 
        55.7413     1.45153e-15 
        55.7723     1.50622e-15 
        55.8033     1.56296e-15 
        55.8343     1.62183e-15 
        55.8653     1.68294e-15 
        55.8964     1.74634e-15 
        55.9275     1.81213e-15 
        55.9586      1.8804e-15 
        55.9896     1.95124e-15 
        56.0208     2.02474e-15 
        56.0519     2.10102e-15 
         56.083     2.18017e-15 
        56.1142     2.26232e-15 
        56.1453     2.34754e-15 
        56.1766     2.43598e-15 
        56.2077     2.52776e-15 
        56.2391     2.62298e-15 
        56.2703      2.7218e-15 
        56.3016     2.82433e-15 
        56.3328     2.93074e-15 
        56.3642     3.04115e-15 
        56.3954     3.15572e-15 
        56.4268      3.2746e-15 
        56.4582     3.39797e-15 
        56.4896     3.52598e-15 
        56.5209     3.65882e-15 
        56.5523     3.79665e-15 
        56.5837     3.93968e-15 
        56.6152     4.08809e-15 
        56.6467     4.24211e-15 
        56.6782     4.40192e-15 
        56.7096     4.56777e-15 
        56.7412     4.73985e-15 
        56.7726     4.91841e-15 
        56.8043      5.1037e-15 
        56.8358     5.29597e-15 
        56.8674     5.49549e-15 
         56.899     5.70252e-15 
        56.9306     5.91736e-15 
        56.9623     6.14027e-15 
        56.9939     6.37161e-15 
        57.0256     6.61164e-15 
        57.0572     6.86072e-15 
         57.089     7.11919e-15 
        57.1207     7.38738e-15 
        57.1524      7.6657e-15 
        57.1841      7.9545e-15 
         57.216     8.25414e-15 
        57.2478      8.5651e-15 
        57.2795     8.88781e-15 
        57.3114     9.22263e-15 
        57.3433     9.57006e-15 
        57.3751      9.9306e-15 
         57.407     1.03047e-14 
        57.4389     1.06929e-14 
        57.4708     1.10958e-14 
        57.5028     1.15138e-14 
        57.5347     1.19475e-14 
        57.5667     1.23976e-14 
        57.5987     1.28647e-14 
        57.6307     1.33493e-14 
        57.6627     1.38523e-14 
        57.6948     1.43741e-14 
        57.7268     1.49157e-14 
        57.7589     1.54776e-14 
         57.791     1.60606e-14 
        57.8231     1.66657e-14 
        57.8552     1.72935e-14 
        57.8874      1.7945e-14 
        57.9196     1.86148e-14 
        57.9517     1.92851e-14 
        57.9839      1.9979e-14 
        58.0162     2.06978e-14 
        58.0485     2.14426e-14 
        58.0806     2.22142e-14 
        58.1129     2.30135e-14 
        58.1453     2.38415e-14 
        58.1776     2.46994e-14 
        58.2099     2.55882e-14 
        58.2422     2.65089e-14 
        58.2746     2.74626e-14 
         58.307     2.84508e-14 
        58.3393     2.94746e-14 
        58.3718     3.05351e-14 
        58.4042     3.16338e-14 
        58.4367     3.27721e-14 
        58.4692     3.39513e-14 
        58.5017     3.51728e-14 
        58.5341     3.64384e-14 
        58.5667     3.77495e-14 
        58.5992     3.91078e-14 
        58.6318      4.0515e-14 
        58.6644     4.19728e-14 
         58.697      4.3483e-14 
        58.7296     4.50476e-14 
        58.7622     4.66686e-14 
        58.7949     4.83477e-14 
        58.8276     5.00874e-14 
        58.8603     5.18896e-14 
         58.893     5.37566e-14 
        58.9256      5.5691e-14 
        58.9584     5.76948e-14 
        58.9912     5.97709e-14 
         59.024     6.19213e-14 
        59.0568     6.41493e-14 
        59.0896     6.64575e-14 
        59.1224      6.8849e-14 
        59.1553     7.13262e-14 
        59.1882     7.38925e-14 
        59.2211     7.65514e-14 
         59.254     7.93059e-14 
        59.2869     8.21595e-14 
        59.3199     8.51156e-14 
        59.3529     8.81781e-14 
        59.3858     9.13511e-14 
        59.4187     9.46382e-14 
        59.4518     9.80432e-14 
        59.4849     1.01571e-13 
        59.5179     1.05226e-13 
        59.5509     1.09012e-13 
        59.5841     1.12934e-13 
        59.6171     1.16998e-13 
        59.6503     1.21208e-13 
        59.6835     1.25569e-13 
        59.7166     1.30087e-13 
        59.7498     1.34768e-13 
         59.783     1.39618e-13 
        59.8162     1.44641e-13 
        59.8494     1.49845e-13 
        59.8827     1.55238e-13 
        59.9161     1.60823e-13 
        59.9493     1.66609e-13 
        59.9826     1.72604e-13 
         60.016     1.78815e-13 
        60.0493     1.85249e-13 
        60.0826     1.91914e-13 
        60.1161     1.98819e-13 
        60.1495     2.05973e-13 
        60.1829     2.13386e-13 
        60.2163     2.21063e-13 
        60.2499     2.29017e-13 
        60.2833     2.37257e-13 
        60.3168     2.45795e-13 
        60.3503     2.54639e-13 
        60.3838     2.63801e-13 
        60.4174     2.73292e-13 
        60.4509     2.83127e-13 
        60.4846     2.93313e-13 
        60.5182     3.03868e-13 
        60.5518     3.14802e-13 
        60.5854     3.26129e-13 
        60.6191     3.37863e-13 
        60.6528      3.5002e-13 
        60.6865     3.62615e-13 
        60.7203     3.75661e-13 
         60.754     3.89178e-13 
        60.7878     4.03182e-13 
        60.8215     4.17689e-13 
        60.8554     4.32676e-13 
        60.8891     4.47591e-13 
         60.923     4.62908e-13 
        60.9568     4.78751e-13 
        60.9907     4.95136e-13 
        61.0246     5.12081e-13 
        61.0585     5.29605e-13 
        61.0925     5.47729e-13 
        61.1264     5.66476e-13 
        61.1604     5.85861e-13 
        61.1944     6.05911e-13 
        61.2284     6.26648e-13 
        61.2624     6.48094e-13 
        61.2965     6.70273e-13 
        61.3305     6.93214e-13 
        61.3646     7.16936e-13 
        61.3987     7.41472e-13 
        61.4328     7.66849e-13 
        61.4669     7.93094e-13 
        61.5011     8.20235e-13 
        61.5353     8.48305e-13 
        61.5694     8.77339e-13 
        61.6037     9.07362e-13 
        61.6379     9.38416e-13 
        61.6721     9.70532e-13 
        61.7064     1.00374e-12 
        61.7407      1.0381e-12 
         61.775     1.07363e-12 
        61.8093     1.11037e-12 
        61.8437     1.14837e-12 
        61.8781     1.18767e-12 
        61.9124     1.22831e-12 
        61.9469     1.27035e-12 
        61.9813     1.31382e-12 
        62.0157      1.3588e-12 
        62.0502     1.40529e-12 
        62.0846     1.45339e-12 
        62.1191     1.50313e-12 
        62.1536     1.55457e-12 
        62.1882     1.60777e-12 
        62.2228     1.66279e-12 
        62.2574      1.7197e-12 
        62.2919     1.77855e-12 
        62.3265     1.83942e-12 
        62.3613     1.90236e-12 
        62.3959     1.96747e-12 
        62.4305     2.03481e-12 
        62.4652     2.10444e-12 
