# TLUSTY OSTAR2002+BSTAR2006
# teff = 42500 K (value for the effective temperature for the model. Temperatures are given in K)
# logg = 4.75 log(cm/s2) (value for Log(G) for the model.)
# z = 0.5  (Z/Z0)
#
# column 1: WAVELENGTH (ANGSTROM), Wavelength in Angstrom
# column 2: FLUX (ERG/CM2/S/A), Flux in erg/cm2/s/A
        44.8829     1.85488e-24 
        44.9078     1.92212e-24 
        44.9328     2.01642e-24 
        44.9578     2.11533e-24 
        44.9827     2.21909e-24 
        45.0077     2.32795e-24 
        45.0327     2.44214e-24 
        45.0578     2.56193e-24 
        45.0828      2.6876e-24 
        45.1079     2.81944e-24 
        45.1329     2.95774e-24 
         45.158     3.10283e-24 
        45.1831     3.25505e-24 
        45.2082     3.41471e-24 
        45.2333     3.58221e-24 
        45.2585     3.75795e-24 
        45.2836     3.94228e-24 
        45.3088     4.13565e-24 
        45.3339     4.33854e-24 
        45.3592     4.55135e-24 
        45.3844     4.77461e-24 
        45.4096     5.00883e-24 
        45.4348     5.25453e-24 
        45.4601     5.51227e-24 
        45.4853     5.78267e-24 
        45.5106     6.06633e-24 
        45.5359     6.36391e-24 
        45.5612     6.67607e-24 
        45.5865     7.00357e-24 
        45.6118     7.34713e-24 
        45.6372     7.70754e-24 
        45.6626     8.08561e-24 
         45.688     8.48223e-24 
        45.7133     8.89832e-24 
        45.7388      9.3348e-24 
        45.7642     9.79271e-24 
        45.7896     1.02731e-23 
         45.815      1.0777e-23 
        45.8405     1.13057e-23 
         45.866     1.18602e-23 
        45.8915      1.2442e-23 
         45.917     1.30523e-23 
        45.9425     1.36926e-23 
         45.968     1.43643e-23 
        45.9936     1.50689e-23 
        46.0191     1.58081e-23 
        46.0447     1.65836e-23 
        46.0702     1.73971e-23 
        46.0959     1.82504e-23 
        46.1215     1.91456e-23 
        46.1471     2.00848e-23 
        46.1728     2.10701e-23 
        46.1984     2.21037e-23 
        46.2241     2.31879e-23 
        46.2498     2.43253e-23 
        46.2755     2.55187e-23 
        46.3012     2.67704e-23 
        46.3269     2.80835e-23 
        46.3527     2.94611e-23 
        46.3784     3.09063e-23 
        46.4042     3.24224e-23 
          46.43     3.40129e-23 
        46.4558     3.56813e-23 
        46.4816     3.74315e-23 
        46.5074     3.92678e-23 
        46.5333      4.1194e-23 
        46.5591     4.32147e-23 
         46.585     4.53347e-23 
        46.6109     4.75584e-23 
        46.6368     4.98757e-23 
        46.6627     5.22348e-23 
        46.6886     5.47066e-23 
        46.7146     5.72951e-23 
        46.7405     6.00064e-23 
        46.7665      6.2846e-23 
        46.7925     6.58199e-23 
        46.8185     6.89344e-23 
        46.8445     7.21962e-23 
        46.8705     7.56128e-23 
        46.8966     7.91909e-23 
        46.9226     8.29381e-23 
        46.9487     8.68628e-23 
        46.9748      9.0973e-23 
        47.0009     9.52781e-23 
        47.0271     9.97862e-23 
        47.0532     1.04508e-22 
        47.0794     1.09453e-22 
        47.1055     1.14633e-22 
        47.1317     1.20057e-22 
        47.1579     1.25739e-22 
        47.1841     1.31688e-22 
        47.2103      1.3792e-22 
        47.2366     1.44446e-22 
        47.2628     1.51282e-22 
         47.289      1.5844e-22 
        47.3154     1.65937e-22 
        47.3416      1.7379e-22 
        47.3679     1.82013e-22 
        47.3943     1.90626e-22 
        47.4206     1.99647e-22 
        47.4469     2.09095e-22 
        47.4733     2.18989e-22 
        47.4997      2.2935e-22 
        47.5261     2.40204e-22 
        47.5525     2.51571e-22 
        47.5789     2.63475e-22 
        47.6054     2.75943e-22 
        47.6318        2.89e-22 
        47.6583     3.02675e-22 
        47.6847     3.16999e-22 
        47.7113     3.31999e-22 
        47.7378     3.47708e-22 
        47.7643     3.64163e-22 
        47.7908     3.81394e-22 
        47.8174     3.99443e-22 
         47.844     4.18343e-22 
        47.8706      4.3814e-22 
        47.8971     4.58873e-22 
        47.9238     4.80587e-22 
        47.9505     5.03328e-22 
        47.9771     5.27146e-22 
        48.0037      5.5209e-22 
        48.0304     5.78215e-22 
        48.0571     6.05577e-22 
        48.0838     6.34232e-22 
        48.1105     6.64244e-22 
        48.1372     6.95677e-22 
         48.164     7.28595e-22 
        48.1908     7.63072e-22 
        48.2175     7.99182e-22 
        48.2444     8.36998e-22 
        48.2712     8.76605e-22 
         48.298     9.18085e-22 
        48.3248     9.61531e-22 
        48.3517     1.00703e-21 
        48.3785     1.05468e-21 
        48.4054     1.10459e-21 
        48.4323     1.15686e-21 
        48.4592      1.2116e-21 
        48.4862     1.26893e-21 
        48.5131     1.32907e-21 
          48.54     1.39027e-21 
         48.567     1.45356e-21 
         48.594     1.51972e-21 
         48.621      1.5889e-21 
         48.648     1.66123e-21 
        48.6751     1.73685e-21 
        48.7022     1.81591e-21 
        48.7292     1.89857e-21 
        48.7563       1.985e-21 
        48.7834     2.07536e-21 
        48.8105     2.16983e-21 
        48.8376      2.2686e-21 
        48.8647     2.37187e-21 
        48.8919     2.47982e-21 
         48.919     2.59272e-21 
        48.9463     2.71073e-21 
        48.9735     2.83413e-21 
        49.0007     2.96314e-21 
        49.0279     3.09802e-21 
        49.0551     3.23906e-21 
        49.0824     3.38648e-21 
        49.1097     3.54065e-21 
         49.137     3.70182e-21 
        49.1643     3.87033e-21 
        49.1916      4.0465e-21 
        49.2189      4.2307e-21 
        49.2463     4.42328e-21 
        49.2737     4.62462e-21 
         49.301     4.83516e-21 
        49.3284     5.05526e-21 
        49.3559     5.28536e-21 
        49.3833     5.52597e-21 
        49.4107     5.77751e-21 
        49.4382     6.04049e-21 
        49.4656     6.31546e-21 
        49.4932     6.60294e-21 
        49.5206     6.90351e-21 
        49.5481     7.21778e-21 
        49.5757     7.54633e-21 
        49.6032     7.88984e-21 
        49.6308     8.24898e-21 
        49.6584      8.6245e-21 
         49.686     9.01707e-21 
        49.7136     9.42753e-21 
        49.7412     9.85667e-21 
        49.7688     1.03054e-20 
        49.7965     1.07745e-20 
        49.8242     1.12649e-20 
        49.8519     1.17777e-20 
        49.8796     1.23138e-20 
        49.9073     1.28744e-20 
         49.935     1.34604e-20 
        49.9627     1.40732e-20 
        49.9906     1.47137e-20 
        50.0183     1.53836e-20 
        50.0462     1.60838e-20 
        50.0739      1.6816e-20 
        50.1018     1.75813e-20 
        50.1296     1.83817e-20 
        50.1574     1.92185e-20 
        50.1853     2.00933e-20 
        50.2132     2.10079e-20 
        50.2412     2.19642e-20 
         50.269     2.29641e-20 
         50.297     2.40095e-20 
        50.3249     2.51023e-20 
        50.3529      2.6245e-20 
        50.3809     2.74397e-20 
        50.4088     2.86887e-20 
        50.4369     2.99947e-20 
        50.4649     3.13601e-20 
         50.493     3.27875e-20 
         50.521     3.42802e-20 
        50.5491     3.58406e-20 
        50.5771     3.74598e-20 
        50.6053      3.9096e-20 
        50.6334     4.08032e-20 
        50.6616     4.25849e-20 
        50.6897     4.44444e-20 
        50.7179     4.63851e-20 
        50.7461     4.84105e-20 
        50.7742     5.05244e-20 
        50.8025     5.27305e-20 
        50.8307     5.50329e-20 
        50.8589     5.74361e-20 
        50.8872     5.99439e-20 
        50.9155     6.25615e-20 
        50.9438     6.52933e-20 
        50.9721     6.81442e-20 
        51.0004     7.11199e-20 
        51.0288     7.42253e-20 
        51.0571     7.74664e-20 
        51.0855     8.08491e-20 
        51.1139     8.43793e-20 
        51.1423     8.80638e-20 
        51.1707     9.19089e-20 
        51.1991     9.59223e-20 
        51.2276     1.00111e-19 
         51.256     1.04482e-19 
        51.2845     1.09044e-19 
        51.3131     1.13806e-19 
        51.3415     1.18775e-19 
          51.37     1.23962e-19 
        51.3987     1.29374e-19 
        51.4272     1.35023e-19 
        51.4557      1.4092e-19 
        51.4844     1.47073e-19 
        51.5129     1.53494e-19 
        51.5416     1.60197e-19 
        51.5703     1.67192e-19 
        51.5989     1.74493e-19 
        51.6276     1.82112e-19 
        51.6563     1.90064e-19 
         51.685     1.98363e-19 
        51.7137     2.07025e-19 
        51.7424     2.16065e-19 
        51.7712     2.25499e-19 
           51.8     2.35345e-19 
        51.8287     2.45622e-19 
        51.8575     2.56348e-19 
        51.8863     2.67541e-19 
        51.9152     2.79223e-19 
         51.944     2.91416e-19 
        51.9729      3.0414e-19 
        52.0018     3.17421e-19 
        52.0307     3.31281e-19 
        52.0596     3.45746e-19 
        52.0885     3.60842e-19 
        52.1175     3.76599e-19 
        52.1464     3.93044e-19 
        52.1754     4.10206e-19 
        52.2044     4.28118e-19 
        52.2334     4.46813e-19 
        52.2624     4.66322e-19 
        52.2915     4.86684e-19 
        52.3205     5.07935e-19 
        52.3496     5.30115e-19 
        52.3787     5.53263e-19 
        52.4078      5.7742e-19 
        52.4369     6.02634e-19 
        52.4661     6.28947e-19 
        52.4952     6.56411e-19 
        52.5244     6.85073e-19 
        52.5536     7.14988e-19 
        52.5828     7.46208e-19 
        52.6121     7.78789e-19 
        52.6413     8.12797e-19 
        52.6705     8.48289e-19 
        52.6997      8.8533e-19 
         52.729     9.23988e-19 
        52.7583     9.64334e-19 
        52.7877     1.00644e-18 
         52.817     1.04957e-18 
        52.8463     1.09333e-18 
        52.8758     1.13899e-18 
        52.9051     1.18656e-18 
        52.9345     1.23611e-18 
         52.964     1.28773e-18 
        52.9934     1.34152e-18 
        53.0228     1.39754e-18 
        53.0523     1.45591e-18 
        53.0818     1.51671e-18 
        53.1113     1.58005e-18 
        53.1407     1.64604e-18 
        53.1703     1.71478e-18 
        53.1999      1.7864e-18 
        53.2294       1.861e-18 
         53.259     1.93873e-18 
        53.2886     2.01969e-18 
        53.3182     2.10405e-18 
        53.3478     2.19191e-18 
        53.3775     2.28345e-18 
        53.4071     2.37882e-18 
        53.4368     2.47816e-18 
        53.4665     2.58166e-18 
        53.4963     2.68949e-18 
         53.526     2.80181e-18 
        53.5557     2.91881e-18 
        53.5855     3.04071e-18 
        53.6153      3.1677e-18 
         53.645         3.3e-18 
        53.6749     3.43781e-18 
        53.7047     3.58139e-18 
        53.7345     3.73097e-18 
        53.7644     3.88677e-18 
        53.7942      4.0491e-18 
        53.8242      4.2182e-18 
         53.854     4.39438e-18 
        53.8839      4.5779e-18 
        53.9139     4.76909e-18 
        53.9439     4.96826e-18 
        53.9739     5.17575e-18 
        54.0038     5.39191e-18 
        54.0339     5.61708e-18 
        54.0639     5.85168e-18 
         54.094     6.09605e-18 
         54.124     6.35064e-18 
         54.154     6.61588e-18 
        54.1842     6.89217e-18 
        54.2143     7.18002e-18 
        54.2444     7.47988e-18 
        54.2745     7.79225e-18 
        54.3047     8.11768e-18 
        54.3349     8.45669e-18 
        54.3651     8.80989e-18 
        54.3953     9.17782e-18 
        54.4255     9.56112e-18 
        54.4557     9.96042e-18 
         54.486     1.03764e-17 
        54.5163     1.08097e-17 
        54.5466     1.12612e-17 
        54.5769     1.17315e-17 
        54.6072     1.22215e-17 
        54.6376     1.27319e-17 
        54.6679     1.32635e-17 
        54.6984     1.38174e-17 
        54.7287     1.43945e-17 
        54.7591     1.49958e-17 
        54.7895     1.56221e-17 
          54.82     1.62744e-17 
        54.8505     1.69541e-17 
         54.881     1.76621e-17 
        54.9115     1.83998e-17 
         54.942     1.91682e-17 
        54.9725     1.99687e-17 
         55.003     2.08027e-17 
        55.0336     2.16714e-17 
        55.0642     2.25765e-17 
        55.0948     2.35193e-17 
        55.1254     2.45016e-17 
        55.1561     2.55249e-17 
        55.1867     2.65909e-17 
        55.2174     2.77014e-17 
         55.248     2.88452e-17 
        55.2788     2.99937e-17 
        55.3095     3.11882e-17 
        55.3402     3.24302e-17 
         55.371     3.37217e-17 
        55.4017     3.50647e-17 
        55.4325      3.6461e-17 
        55.4633     3.79132e-17 
        55.4941      3.9423e-17 
         55.525     4.09928e-17 
        55.5558     4.26255e-17 
        55.5867      4.4323e-17 
        55.6176      4.6088e-17 
        55.6485     4.79234e-17 
        55.6794     4.98319e-17 
        55.7104     5.18164e-17 
        55.7413       5.388e-17 
        55.7723     5.60257e-17 
        55.8033     5.82569e-17 
        55.8343     6.05768e-17 
        55.8653     6.29892e-17 
        55.8964     6.54977e-17 
        55.9275     6.81061e-17 
        55.9586     7.08182e-17 
        55.9896     7.36387e-17 
        56.0208      7.6571e-17 
        56.0519     7.96204e-17 
         56.083     8.27912e-17 
        56.1142     8.60883e-17 
        56.1453     8.95169e-17 
        56.1766     9.30817e-17 
        56.2077     9.67887e-17 
        56.2391     1.00643e-16 
        56.2703     1.04651e-16 
        56.3016     1.08818e-16 
        56.3328     1.13152e-16 
        56.3642     1.17658e-16 
        56.3954     1.22344e-16 
        56.4268     1.27216e-16 
        56.4582     1.32282e-16 
        56.4896      1.3755e-16 
        56.5209     1.43029e-16 
        56.5523     1.48724e-16 
        56.5837     1.54647e-16 
        56.6152     1.60805e-16 
        56.6467      1.6721e-16 
        56.6782     1.73868e-16 
        56.7096     1.80793e-16 
        56.7412     1.87992e-16 
        56.7726     1.95479e-16 
        56.8043     2.03264e-16 
        56.8358     2.11358e-16 
        56.8674     2.19775e-16 
         56.899     2.28527e-16 
        56.9306     2.37629e-16 
        56.9623     2.47092e-16 
        56.9939     2.56932e-16 
        57.0256     2.67164e-16 
        57.0572     2.77804e-16 
         57.089     2.88867e-16 
        57.1207      3.0037e-16 
        57.1524     3.12332e-16 
        57.1841     3.24771e-16 
         57.216     3.37703e-16 
        57.2478     3.51152e-16 
        57.2795     3.65137e-16 
        57.3114     3.79678e-16 
        57.3433     3.94799e-16 
        57.3751     4.10521e-16 
         57.407      4.2687e-16 
        57.4389      4.4387e-16 
        57.4708     4.61545e-16 
        57.5028     4.79926e-16 
        57.5347      4.9904e-16 
        57.5667     5.18912e-16 
        57.5987     5.39577e-16 
        57.6307     5.61065e-16 
        57.6627      5.8341e-16 
        57.6948     6.06643e-16 
        57.7268     6.30802e-16 
        57.7589     6.55922e-16 
         57.791     6.82044e-16 
        57.8231     7.09205e-16 
        57.8552     7.37449e-16 
        57.8874     7.66817e-16 
        57.9196      7.9704e-16 
        57.9517     8.27237e-16 
        57.9839     8.58554e-16 
        58.0162      8.9105e-16 
        58.0485      9.2478e-16 
        58.0806      9.5979e-16 
        58.1129     9.96122e-16 
        58.1453     1.03383e-15 
        58.1776     1.07296e-15 
        58.2099     1.11358e-15 
        58.2422     1.15574e-15 
        58.2746     1.19948e-15 
         58.307     1.24489e-15 
        58.3393     1.29202e-15 
        58.3718     1.34092e-15 
        58.4042     1.39168e-15 
        58.4367     1.44436e-15 
        58.4692     1.49903e-15 
        58.5017     1.55579e-15 
        58.5341     1.61468e-15 
        58.5667     1.67579e-15 
        58.5992     1.73924e-15 
        58.6318     1.80507e-15 
        58.6644      1.8734e-15 
         58.697     1.94432e-15 
        58.7296     2.01793e-15 
        58.7622     2.09431e-15 
        58.7949     2.17358e-15 
        58.8276     2.25586e-15 
        58.8603     2.34126e-15 
         58.893     2.42989e-15 
        58.9256     2.52187e-15 
        58.9584     2.61734e-15 
        58.9912     2.71642e-15 
         59.024     2.81924e-15 
        59.0568     2.92596e-15 
        59.0896     3.03672e-15 
        59.1224     3.15168e-15 
        59.1553     3.27098e-15 
        59.1882      3.3948e-15 
        59.2211     3.52331e-15 
         59.254     3.65669e-15 
        59.2869     3.79511e-15 
        59.3199     3.93877e-15 
        59.3529     4.08786e-15 
        59.3858     4.24261e-15 
        59.4187     4.40323e-15 
        59.4518     4.56989e-15 
        59.4849     4.74289e-15 
        59.5179     4.92242e-15 
        59.5509     5.10877e-15 
        59.5841     5.30215e-15 
        59.6171     5.50287e-15 
        59.6503     5.71116e-15 
        59.6835     5.92735e-15 
        59.7166     6.15174e-15 
        59.7498      6.3846e-15 
         59.783      6.6263e-15 
        59.8162     6.87713e-15 
        59.8494     7.13746e-15 
        59.8827     7.40765e-15 
        59.9161     7.68804e-15 
        59.9493      7.9791e-15 
        59.9826     8.28113e-15 
         60.016     8.59459e-15 
        60.0493     8.91995e-15 
        60.0826     9.25762e-15 
        60.1161     9.60802e-15 
        60.1495     9.97173e-15 
        60.1829     1.03492e-14 
        60.2163     1.07409e-14 
        60.2499     1.11475e-14 
        60.2833     1.15695e-14 
        60.3168     1.20076e-14 
        60.3503     1.24621e-14 
        60.3838     1.29338e-14 
        60.4174     1.34234e-14 
        60.4509     1.39315e-14 
        60.4846     1.44589e-14 
        60.5182     1.50063e-14 
        60.5518     1.55744e-14 
        60.5854     1.61638e-14 
        60.6191     1.67758e-14 
        60.6528     1.74108e-14 
        60.6865     1.80699e-14 
        60.7203     1.87539e-14 
         60.754     1.94638e-14 
        60.7878     2.02006e-14 
        60.8215     2.09653e-14 
        60.8554     2.17565e-14 
        60.8891     2.25428e-14 
         60.923     2.33512e-14 
        60.9568     2.41886e-14 
        60.9907     2.50561e-14 
        61.0246     2.59546e-14 
        61.0585     2.68854e-14 
        61.0925     2.78495e-14 
        61.1264     2.88483e-14 
        61.1604     2.98827e-14 
        61.1944     3.09544e-14 
        61.2284     3.20645e-14 
        61.2624     3.32144e-14 
        61.2965     3.44054e-14 
        61.3305     3.56394e-14 
        61.3646     3.69175e-14 
        61.3987     3.82414e-14 
        61.4328     3.96129e-14 
        61.4669     4.10334e-14 
        61.5011     4.25049e-14 
        61.5353     4.40292e-14 
        61.5694     4.56083e-14 
        61.6037     4.72437e-14 
        61.6379      4.8938e-14 
        61.6721      5.0693e-14 
        61.7064     5.25109e-14 
        61.7407      5.4394e-14 
         61.775     5.63445e-14 
        61.8093     5.83653e-14 
        61.8437     6.04582e-14 
        61.8781     6.26264e-14 
        61.9124     6.48723e-14 
        61.9469     6.71987e-14 
        61.9813     6.96085e-14 
        62.0157     7.21049e-14 
        62.0502     7.46906e-14 
        62.0846     7.73693e-14 
        62.1191     8.01439e-14 
        62.1536     8.30179e-14 
        62.1882     8.59951e-14 
        62.2228     8.90789e-14 
        62.2574     9.22732e-14 
        62.2919     9.55825e-14 
        62.3265     9.90104e-14 
        62.3613     1.02561e-13 
        62.3959     1.06238e-13 
        62.4305     1.10049e-13 
        62.4652     1.13995e-13 
