# TLUSTY OSTAR2002+BSTAR2006
# teff = 45000 K (value for the effective temperature for the model. Temperatures are given in K)
# logg = 3.75 log(cm/s2) (value for Log(G) for the model.)
# z = 0.5  (Z/Z0)
#
# column 1: WAVELENGTH (ANGSTROM), Wavelength in Angstrom
# column 2: FLUX (ERG/CM2/S/A), Flux in erg/cm2/s/A
        44.8829     6.56949e-20 
        44.9078     6.76866e-20 
        44.9328     7.04643e-20 
        44.9578     7.33559e-20 
        44.9827     7.63664e-20 
        45.0077     7.95004e-20 
        45.0327      8.2763e-20 
        45.0578     8.61592e-20 
        45.0828     8.96952e-20 
        45.1079     9.33758e-20 
        45.1329      9.7208e-20 
         45.158     1.01197e-19 
        45.1831      1.0535e-19 
        45.2082     1.09673e-19 
        45.2333     1.14174e-19 
        45.2585      1.1886e-19 
        45.2836     1.23738e-19 
        45.3088     1.28815e-19 
        45.3339     1.34102e-19 
        45.3592     1.39605e-19 
        45.3844     1.45334e-19 
        45.4096     1.51298e-19 
        45.4348     1.57507e-19 
        45.4601     1.63971e-19 
        45.4853       1.707e-19 
        45.5106     1.77705e-19 
        45.5359     1.84999e-19 
        45.5612      1.9259e-19 
        45.5865     2.00494e-19 
        45.6118     2.08721e-19 
        45.6372     2.17287e-19 
        45.6626     2.26204e-19 
         45.688     2.35486e-19 
        45.7133     2.45151e-19 
        45.7388     2.55211e-19 
        45.7642     2.65684e-19 
        45.7896     2.76587e-19 
         45.815     2.87937e-19 
        45.8405     2.99755e-19 
         45.866     3.12056e-19 
        45.8915     3.24862e-19 
         45.917     3.38194e-19 
        45.9425     3.52073e-19 
         45.968      3.6652e-19 
        45.9936     3.81562e-19 
        46.0191      3.9722e-19 
        46.0447     4.13521e-19 
        46.0702     4.30491e-19 
        46.0959     4.48157e-19 
        46.1215     4.66549e-19 
        46.1471     4.85696e-19 
        46.1728     5.05626e-19 
        46.1984     5.26378e-19 
        46.2241     5.47978e-19 
        46.2498     5.70467e-19 
        46.2755     5.93877e-19 
        46.3012     6.18248e-19 
        46.3269     6.43621e-19 
        46.3527     6.70033e-19 
        46.3784      6.9753e-19 
        46.4042     7.26156e-19 
          46.43     7.55955e-19 
        46.4558     7.86979e-19 
        46.4816     8.19274e-19 
        46.5074     8.52897e-19 
        46.5333     8.87898e-19 
        46.5591     9.24335e-19 
         46.585     9.62269e-19 
        46.6109     1.00176e-18 
        46.6368     1.04271e-18 
        46.6627     1.08449e-18 
        46.6886     1.12797e-18 
        46.7146      1.1732e-18 
        46.7405     1.22024e-18 
        46.7665     1.26918e-18 
        46.7925     1.32007e-18 
        46.8185       1.373e-18 
        46.8445     1.42805e-18 
        46.8705     1.48532e-18 
        46.8966     1.54488e-18 
        46.9226     1.60682e-18 
        46.9487     1.67125e-18 
        46.9748     1.73827e-18 
        47.0009     1.80796e-18 
        47.0271     1.88046e-18 
        47.0532     1.95586e-18 
        47.0794     2.03429e-18 
        47.1055     2.11587e-18 
        47.1317     2.20071e-18 
        47.1579     2.28895e-18 
        47.1841     2.38073e-18 
        47.2103      2.4762e-18 
        47.2366     2.57548e-18 
        47.2628     2.67876e-18 
         47.289     2.78618e-18 
        47.3154     2.89789e-18 
        47.3416     3.01409e-18 
        47.3679     3.13494e-18 
        47.3943     3.26065e-18 
        47.4206     3.39139e-18 
        47.4469     3.52739e-18 
        47.4733     3.66882e-18 
        47.4997     3.81594e-18 
        47.5261     3.96896e-18 
        47.5525      4.1281e-18 
        47.5789     4.29363e-18 
        47.6054      4.4658e-18 
        47.6318     4.64487e-18 
        47.6583     4.83112e-18 
        47.6847     5.02485e-18 
        47.7113     5.22632e-18 
        47.7378     5.43589e-18 
        47.7643     5.65386e-18 
        47.7908     5.88056e-18 
        47.8174     6.11637e-18 
         47.844     6.36162e-18 
        47.8706      6.6167e-18 
        47.8971     6.88203e-18 
        47.9238     7.15798e-18 
        47.9505     7.44499e-18 
        47.9771     7.74353e-18 
        48.0037     8.05404e-18 
        48.0304     8.37697e-18 
        48.0571     8.71289e-18 
        48.0838     9.06226e-18 
        48.1105     9.42564e-18 
        48.1372      9.8036e-18 
         48.164     1.01967e-17 
        48.1908     1.06056e-17 
        48.2175     1.10308e-17 
        48.2444     1.14731e-17 
        48.2712     1.19332e-17 
         48.298     1.24117e-17 
        48.3248     1.29094e-17 
        48.3517      1.3427e-17 
        48.3785     1.39654e-17 
        48.4054     1.45254e-17 
        48.4323     1.51079e-17 
        48.4592     1.57136e-17 
        48.4862     1.63438e-17 
        48.5131         1.7e-17 
          48.54     1.76685e-17 
         48.567     1.83581e-17 
         48.594     1.90744e-17 
         48.621     1.98188e-17 
         48.648     2.05922e-17 
        48.6751     2.13958e-17 
        48.7022     2.22307e-17 
        48.7292     2.30983e-17 
        48.7563     2.39998e-17 
        48.7834     2.49364e-17 
        48.8105     2.59095e-17 
        48.8376     2.69205e-17 
        48.8647     2.79712e-17 
        48.8919     2.90627e-17 
         48.919     3.01969e-17 
        48.9463     3.13752e-17 
        48.9735     3.25997e-17 
        49.0007     3.38719e-17 
        49.0279     3.51937e-17 
        49.0551     3.65672e-17 
        49.0824     3.79942e-17 
        49.1097     3.94769e-17 
         49.137     4.10176e-17 
        49.1643     4.26182e-17 
        49.1916     4.42813e-17 
        49.2189     4.60094e-17 
        49.2463     4.78049e-17 
        49.2737     4.96703e-17 
         49.301     5.16089e-17 
        49.3284     5.36229e-17 
        49.3559     5.57154e-17 
        49.3833     5.78898e-17 
        49.4107      6.0149e-17 
        49.4382     6.24963e-17 
        49.4656     6.49351e-17 
        49.4932     6.74691e-17 
        49.5206     7.01022e-17 
        49.5481     7.28378e-17 
        49.5757     7.56803e-17 
        49.6032     7.86337e-17 
        49.6308     8.17023e-17 
        49.6584     8.48908e-17 
         49.686     8.82035e-17 
        49.7136     9.16457e-17 
        49.7412      9.5222e-17 
        49.7688     9.89383e-17 
        49.7965     1.02799e-16 
        49.8242     1.06811e-16 
        49.8519     1.10979e-16 
        49.8796      1.1531e-16 
        49.9073      1.1981e-16 
         49.935     1.24486e-16 
        49.9627     1.29344e-16 
        49.9906     1.34391e-16 
        50.0183     1.39636e-16 
        50.0462     1.45085e-16 
        50.0739     1.50746e-16 
        50.1018      1.5663e-16 
        50.1296     1.62742e-16 
        50.1574     1.69094e-16 
        50.1853     1.75692e-16 
        50.2132     1.82548e-16 
        50.2412     1.89672e-16 
         50.269     1.97073e-16 
         50.297     2.04765e-16 
        50.3249     2.12756e-16 
        50.3529     2.21058e-16 
        50.3809     2.29685e-16 
        50.4088     2.38649e-16 
        50.4369     2.47962e-16 
        50.4649     2.57638e-16 
         50.493     2.67692e-16 
         50.521     2.78139e-16 
        50.5491     2.88994e-16 
        50.5771     3.00211e-16 
        50.6053     3.11569e-16 
        50.6334     3.23356e-16 
        50.6616     3.35589e-16 
        50.6897     3.48286e-16 
        50.7179     3.61462e-16 
        50.7461     3.75137e-16 
        50.7742     3.89329e-16 
        50.8025     4.04059e-16 
        50.8307     4.19344e-16 
        50.8589      4.3521e-16 
        50.8872     4.51673e-16 
        50.9155     4.68762e-16 
        50.9438     4.86496e-16 
        50.9721     5.04901e-16 
        51.0004     5.24004e-16 
        51.0288     5.43826e-16 
        51.0571     5.64402e-16 
        51.0855     5.85755e-16 
        51.1139     6.07915e-16 
        51.1423     6.30913e-16 
        51.1707     6.54781e-16 
        51.1991     6.79553e-16 
        51.2276     7.05263e-16 
         51.256     7.31945e-16 
        51.2845     7.59635e-16 
        51.3131     7.88373e-16 
        51.3415       8.182e-16 
          51.37     8.49155e-16 
        51.3987     8.81277e-16 
        51.4272     9.14618e-16 
        51.4557     9.49223e-16 
        51.4844     9.85132e-16 
        51.5129      1.0224e-15 
        51.5416     1.06108e-15 
        51.5703     1.10122e-15 
        51.5989     1.14289e-15 
        51.6276     1.18613e-15 
        51.6563       1.231e-15 
         51.685     1.27757e-15 
        51.7137      1.3259e-15 
        51.7424     1.37607e-15 
        51.7712     1.42812e-15 
           51.8     1.48215e-15 
        51.8287     1.53823e-15 
        51.8575     1.59642e-15 
        51.8863     1.65682e-15 
        51.9152     1.71951e-15 
         51.944     1.78454e-15 
        51.9729     1.85206e-15 
        52.0018     1.92212e-15 
        52.0307     1.99485e-15 
        52.0596     2.07032e-15 
        52.0885     2.14865e-15 
        52.1175     2.22992e-15 
        52.1464      2.3143e-15 
        52.1754     2.40185e-15 
        52.2044     2.49272e-15 
        52.2334     2.58702e-15 
        52.2624      2.6849e-15 
        52.2915     2.78647e-15 
        52.3205      2.8919e-15 
        52.3496      3.0013e-15 
        52.3787     3.11484e-15 
        52.4078     3.23269e-15 
        52.4369     3.35498e-15 
        52.4661     3.48191e-15 
        52.4952     3.61363e-15 
        52.5244     3.75035e-15 
        52.5536     3.89224e-15 
        52.5828     4.03948e-15 
        52.6121     4.19229e-15 
        52.6413     4.35091e-15 
        52.6705     4.51552e-15 
        52.6997     4.68636e-15 
         52.729     4.86364e-15 
        52.7583     5.04764e-15 
        52.7877      5.2386e-15 
         52.817     5.43385e-15 
        52.8463     5.63186e-15 
        52.8758      5.8374e-15 
        52.9051     6.05048e-15 
        52.9345     6.27129e-15 
         52.964     6.50017e-15 
        52.9934     6.73744e-15 
        53.0228     6.98334e-15 
        53.0523     7.23821e-15 
        53.0818     7.50239e-15 
        53.1113     7.77621e-15 
        53.1407     8.06004e-15 
        53.1703     8.35419e-15 
        53.1999     8.65911e-15 
        53.2294     8.97515e-15 
         53.259     9.30272e-15 
        53.2886     9.64227e-15 
        53.3182     9.99418e-15 
        53.3478     1.03589e-14 
        53.3775      1.0737e-14 
        53.4071     1.11289e-14 
        53.4368     1.15351e-14 
        53.4665     1.19561e-14 
        53.4963     1.23925e-14 
         53.526     1.28448e-14 
        53.5557     1.33136e-14 
        53.5855     1.37996e-14 
        53.6153     1.43032e-14 
         53.645     1.48253e-14 
        53.6749     1.53662e-14 
        53.7047     1.59272e-14 
        53.7345     1.65085e-14 
        53.7644     1.71109e-14 
        53.7942     1.77356e-14 
        53.8242     1.83828e-14 
         53.854     1.90537e-14 
        53.8839     1.97492e-14 
        53.9139       2.047e-14 
        53.9439     2.12171e-14 
        53.9739     2.19914e-14 
        54.0038     2.27941e-14 
        54.0339     2.36261e-14 
        54.0639     2.44884e-14 
         54.094     2.53821e-14 
         54.124     2.63085e-14 
         54.154     2.72688e-14 
        54.1842     2.82639e-14 
        54.2143     2.92955e-14 
        54.2444     3.03647e-14 
        54.2745     3.14731e-14 
        54.3047     3.26217e-14 
        54.3349     3.38124e-14 
        54.3651     3.50465e-14 
        54.3953     3.63256e-14 
        54.4255     3.76515e-14 
        54.4557     3.90257e-14 
         54.486       4.045e-14 
        54.5163     4.19263e-14 
        54.5466     4.34565e-14 
        54.5769     4.50427e-14 
        54.6072     4.66866e-14 
        54.6376     4.83906e-14 
        54.6679     5.01567e-14 
        54.6984     5.19873e-14 
        54.7287     5.38847e-14 
        54.7591     5.58514e-14 
        54.7895       5.789e-14 
          54.82     6.00028e-14 
        54.8505     6.21927e-14 
         54.881     6.44625e-14 
        54.9115     6.68154e-14 
         54.942     6.92541e-14 
        54.9725     7.17817e-14 
         55.003     7.44017e-14 
        55.0336      7.7117e-14 
        55.0642     7.99318e-14 
        55.0948      8.2849e-14 
        55.1254     8.58729e-14 
        55.1561     8.90071e-14 
        55.1867     9.22556e-14 
        55.2174     9.56227e-14 
         55.248     9.90801e-14 
        55.2788     1.02555e-13 
        55.3095     1.06152e-13 
        55.3402     1.09876e-13 
         55.371      1.1373e-13 
        55.4017      1.1772e-13 
        55.4325     1.21849e-13 
        55.4633     1.26124e-13 
        55.4941     1.30548e-13 
         55.525     1.35127e-13 
        55.5558     1.39868e-13 
        55.5867     1.44774e-13 
        55.6176     1.49852e-13 
        55.6485     1.55109e-13 
        55.6794      1.6055e-13 
        55.7104     1.66182e-13 
        55.7413     1.72011e-13 
        55.7723     1.78044e-13 
        55.8033      1.8429e-13 
        55.8343     1.90755e-13 
        55.8653     1.97446e-13 
        55.8964     2.04373e-13 
        55.9275     2.11542e-13 
        55.9586     2.18962e-13 
        55.9896     2.26644e-13 
        56.0208     2.34593e-13 
        56.0519     2.42822e-13 
         56.083      2.5134e-13 
        56.1142     2.60156e-13 
        56.1453     2.69283e-13 
        56.1766     2.78729e-13 
        56.2077     2.88507e-13 
        56.2391     2.98626e-13 
        56.2703     3.09101e-13 
        56.3016     3.19944e-13 
        56.3328     3.31169e-13 
        56.3642     3.42785e-13 
        56.3954      3.5481e-13 
        56.4268     3.67255e-13 
        56.4582     3.80138e-13 
        56.4896     3.93473e-13 
        56.5209     4.07276e-13 
        56.5523     4.21562e-13 
        56.5837      4.3635e-13 
        56.6152     4.51656e-13 
        56.6467       4.675e-13 
        56.6782     4.83898e-13 
        56.7096     5.00874e-13 
        56.7412     5.18444e-13 
        56.7726     5.36631e-13 
        56.8043     5.55453e-13 
        56.8358     5.74938e-13 
        56.8674     5.95106e-13 
         56.899     6.15982e-13 
        56.9306     6.37591e-13 
        56.9623     6.59955e-13 
        56.9939     6.83105e-13 
        57.0256     7.07068e-13 
        57.0572     7.31872e-13 
         57.089     7.57544e-13 
        57.1207     7.84116e-13 
        57.1524     8.11624e-13 
        57.1841     8.40095e-13 
         57.216     8.69562e-13 
        57.2478     9.00065e-13 
        57.2795     9.31641e-13 
        57.3114      9.6432e-13 
        57.3433     9.98145e-13 
        57.3751     1.03316e-12 
         57.407      1.0694e-12 
        57.4389     1.10692e-12 
        57.4708     1.14574e-12 
        57.5028     1.18594e-12 
        57.5347     1.22754e-12 
        57.5667      1.2706e-12 
        57.5987     1.31517e-12 
        57.6307      1.3613e-12 
        57.6627     1.40906e-12 
        57.6948     1.45848e-12 
        57.7268     1.50964e-12 
        57.7589      1.5626e-12 
         57.791     1.61741e-12 
        57.8231     1.67415e-12 
        57.8552     1.73288e-12 
        57.8874     1.79366e-12 
        57.9196     1.85604e-12 
        57.9517     1.91843e-12 
        57.9839     1.98289e-12 
        58.0162      2.0495e-12 
        58.0485     2.11837e-12 
        58.0806     2.18954e-12 
        58.1129     2.26311e-12 
        58.1453     2.33914e-12 
        58.1776     2.41773e-12 
        58.2099     2.49897e-12 
        58.2422     2.58292e-12 
        58.2746     2.66971e-12 
         58.307     2.75939e-12 
        58.3393     2.85211e-12 
        58.3718     2.94793e-12 
        58.4042     3.04697e-12 
        58.4367     3.14934e-12 
        58.4692     3.25516e-12 
        58.5017     3.36453e-12 
        58.5341     3.47757e-12 
        58.5667     3.59441e-12 
        58.5992     3.71517e-12 
        58.6318        3.84e-12 
        58.6644     3.96901e-12 
         58.697     4.10235e-12 
        58.7296     4.24019e-12 
        58.7622     4.38265e-12 
        58.7949     4.52989e-12 
        58.8276     4.68209e-12 
        58.8603     4.83939e-12 
         58.893     5.00198e-12 
        58.9256     5.17006e-12 
        58.9584     5.34375e-12 
        58.9912     5.52329e-12 
         59.024     5.70885e-12 
        59.0568     5.90066e-12 
        59.0896     6.09891e-12 
        59.1224     6.30384e-12 
        59.1553     6.51562e-12 
        59.1882     6.73452e-12 
        59.2211      6.9608e-12 
         59.254     7.19467e-12 
        59.2869      7.4364e-12 
        59.3199     7.68624e-12 
        59.3529     7.94447e-12 
        59.3858     8.21139e-12 
        59.4187      8.4873e-12 
        59.4518     8.77243e-12 
        59.4849     9.06716e-12 
        59.5179      9.3718e-12 
        59.5509     9.68669e-12 
        59.5841     1.00121e-11 
        59.6171     1.03485e-11 
        59.6503     1.06962e-11 
        59.6835     1.10555e-11 
        59.7166     1.14271e-11 
        59.7498     1.18109e-11 
         59.783     1.22078e-11 
        59.8162     1.26179e-11 
        59.8494     1.30418e-11 
        59.8827     1.34801e-11 
        59.9161     1.39329e-11 
        59.9493     1.44011e-11 
        59.9826     1.48849e-11 
         60.016      1.5385e-11 
        60.0493     1.59019e-11 
        60.0826     1.64362e-11 
        60.1161     1.69883e-11 
        60.1495     1.75592e-11 
        60.1829     1.81491e-11 
        60.2163     1.87589e-11 
        60.2499     1.93891e-11 
        60.2833     2.00406e-11 
        60.3168     2.07139e-11 
        60.3503     2.14098e-11 
        60.3838     2.21292e-11 
        60.4174     2.28727e-11 
        60.4509     2.36411e-11 
        60.4846     2.44354e-11 
        60.5182     2.52564e-11 
        60.5518      2.6105e-11 
        60.5854      2.6982e-11 
        60.6191     2.78886e-11 
        60.6528     2.88255e-11 
        60.6865     2.97941e-11 
        60.7203      3.0795e-11 
         60.754     3.18297e-11 
        60.7878     3.28991e-11 
        60.8215     3.40045e-11 
        60.8554     3.51439e-11 
        60.8891     3.62782e-11 
         60.923     3.74413e-11 
        60.9568     3.86416e-11 
        60.9907     3.98805e-11 
        61.0246      4.1159e-11 
        61.0585     4.24786e-11 
        61.0925     4.38403e-11 
        61.1264      4.5246e-11 
        61.1604     4.66963e-11 
        61.1944     4.81935e-11 
        61.2284     4.97386e-11 
        61.2624     5.13332e-11 
        61.2965     5.29789e-11 
        61.3305     5.46774e-11 
        61.3646     5.64303e-11 
        61.3987     5.82395e-11 
        61.4328     6.01066e-11 
        61.4669     6.20336e-11 
        61.5011     6.40224e-11 
        61.5353     6.60748e-11 
        61.5694     6.81934e-11 
        61.6037     7.03794e-11 
        61.6379     7.26359e-11 
        61.6721     7.49645e-11 
        61.7064     7.73678e-11 
        61.7407     7.98482e-11 
         61.775      8.2408e-11 
        61.8093     8.50501e-11 
        61.8437     8.77766e-11 
        61.8781     9.05907e-11 
        61.9124      9.3495e-11 
        61.9469     9.64924e-11 
        61.9813     9.95858e-11 
        62.0157     1.02779e-10 
        62.0502     1.06073e-10 
        62.0846     1.09474e-10 
        62.1191     1.12984e-10 
        62.1536     1.16607e-10 
        62.1882     1.20344e-10 
        62.2228     1.24203e-10 
        62.2574     1.28184e-10 
        62.2919     1.32294e-10 
        62.3265     1.36536e-10 
        62.3613     1.40913e-10 
        62.3959      1.4543e-10 
        62.4305     1.50093e-10 
        62.4652     1.54904e-10 
