# TLUSTY OSTAR2002+BSTAR2006
# teff = 45000 K (value for the effective temperature for the model. Temperatures are given in K)
# logg = 4 log(cm/s2) (value for Log(G) for the model.)
# z = 0.5  (Z/Z0)
#
# column 1: WAVELENGTH (ANGSTROM), Wavelength in Angstrom
# column 2: FLUX (ERG/CM2/S/A), Flux in erg/cm2/s/A
        44.8829     2.46525e-20 
        44.9078     2.54031e-20 
        44.9328     2.64503e-20 
        44.9578     2.75405e-20 
        44.9827     2.86758e-20 
        45.0077     2.98577e-20 
        45.0327     3.10885e-20 
        45.0578     3.23699e-20 
        45.0828     3.37042e-20 
        45.1079     3.50933e-20 
        45.1329     3.65398e-20 
         45.158     3.80461e-20 
        45.1831     3.96143e-20 
        45.2082     4.12471e-20 
        45.2333     4.29472e-20 
        45.2585     4.47176e-20 
        45.2836     4.65608e-20 
        45.3088     4.84799e-20 
        45.3339     5.04783e-20 
        45.3592     5.25588e-20 
        45.3844     5.47253e-20 
        45.4096     5.69809e-20 
        45.4348     5.93298e-20 
        45.4601     6.17753e-20 
        45.4853     6.43215e-20 
        45.5106     6.69728e-20 
        45.5359     6.97335e-20 
        45.5612     7.26076e-20 
        45.5865     7.56006e-20 
        45.6118     7.87169e-20 
        45.6372     8.19615e-20 
        45.6626     8.53399e-20 
         45.688     8.88573e-20 
        45.7133     9.25201e-20 
        45.7388     9.63335e-20 
        45.7642     1.00304e-19 
        45.7896     1.04439e-19 
         45.815     1.08744e-19 
        45.8405     1.13226e-19 
         45.866     1.17893e-19 
        45.8915     1.22752e-19 
         45.917     1.27812e-19 
        45.9425     1.33081e-19 
         45.968     1.38566e-19 
        45.9936     1.44278e-19 
        46.0191     1.50225e-19 
        46.0447     1.56417e-19 
        46.0702     1.62864e-19 
        46.0959     1.69577e-19 
        46.1215     1.76567e-19 
        46.1471     1.83846e-19 
        46.1728     1.91422e-19 
        46.1984     1.99313e-19 
        46.2241     2.07528e-19 
        46.2498     2.16083e-19 
        46.2755     2.24989e-19 
        46.3012     2.34264e-19 
        46.3269      2.4392e-19 
        46.3527     2.53973e-19 
        46.3784     2.64441e-19 
        46.4042     2.75343e-19 
          46.43     2.86691e-19 
        46.4558     2.98509e-19 
        46.4816     3.10812e-19 
        46.5074     3.23624e-19 
        46.5333     3.36964e-19 
        46.5591     3.50853e-19 
         46.585     3.65315e-19 
        46.6109     3.80372e-19 
        46.6368     3.96016e-19 
        46.6627     4.12054e-19 
        46.6886      4.2876e-19 
        46.7146     4.46142e-19 
        46.7405     4.64229e-19 
        46.7665     4.83051e-19 
        46.7925     5.02635e-19 
        46.8185     5.23012e-19 
        46.8445     5.44215e-19 
        46.8705      5.6628e-19 
        46.8966     5.89239e-19 
        46.9226     6.13127e-19 
        46.9487     6.37984e-19 
        46.9748     6.63848e-19 
        47.0009     6.90763e-19 
        47.0271     7.18767e-19 
        47.0532     7.47907e-19 
        47.0794     7.78228e-19 
        47.1055     8.09782e-19 
        47.1317     8.42609e-19 
        47.1579     8.76771e-19 
        47.1841     9.12318e-19 
        47.2103     9.49304e-19 
        47.2366     9.87791e-19 
        47.2628     1.02784e-18 
         47.289     1.06951e-18 
        47.3154     1.11287e-18 
        47.3416     1.15799e-18 
        47.3679     1.20493e-18 
        47.3943     1.25378e-18 
        47.4206     1.30461e-18 
        47.4469     1.35751e-18 
        47.4733     1.41254e-18 
        47.4997     1.46981e-18 
        47.5261      1.5294e-18 
        47.5525      1.5914e-18 
        47.5789     1.65592e-18 
        47.6054     1.72306e-18 
        47.6318     1.79291e-18 
        47.6583      1.8656e-18 
        47.6847     1.94123e-18 
        47.7113     2.01993e-18 
        47.7378     2.10183e-18 
        47.7643     2.18704e-18 
        47.7908     2.27571e-18 
        47.8174     2.36797e-18 
         47.844     2.46397e-18 
        47.8706     2.56386e-18 
        47.8971     2.66781e-18 
        47.9238     2.77596e-18 
        47.9505      2.8885e-18 
        47.9771     3.00561e-18 
        48.0037     3.12747e-18 
        48.0304     3.25426e-18 
        48.0571      3.3862e-18 
        48.0838     3.52347e-18 
        48.1105     3.66632e-18 
        48.1372     3.81497e-18 
         48.164     3.96964e-18 
        48.1908     4.13057e-18 
        48.2175     4.29803e-18 
        48.2444     4.47228e-18 
        48.2712     4.65359e-18 
         48.298     4.84225e-18 
        48.3248     5.03859e-18 
        48.3517     5.24285e-18 
        48.3785     5.45542e-18 
        48.4054     5.67658e-18 
        48.4323     5.90672e-18 
        48.4592     6.14619e-18 
        48.4862     6.39537e-18 
        48.5131     6.65502e-18 
          48.54     6.92022e-18 
         48.567     7.19419e-18 
         48.594     7.47902e-18 
         48.621     7.77511e-18 
         48.648     8.08293e-18 
        48.6751     8.40292e-18 
        48.7022      8.7356e-18 
        48.7292     9.08146e-18 
        48.7563     9.44101e-18 
        48.7834     9.81478e-18 
        48.8105     1.02034e-17 
        48.8376     1.06073e-17 
        48.8647     1.10273e-17 
        48.8919     1.14639e-17 
         48.919     1.19177e-17 
        48.9463     1.23895e-17 
        48.9735     1.28801e-17 
        49.0007       1.339e-17 
        49.0279     1.39201e-17 
        49.0551     1.44712e-17 
        49.0824     1.50441e-17 
        49.1097     1.56398e-17 
         49.137      1.6259e-17 
        49.1643     1.69026e-17 
        49.1916     1.75718e-17 
        49.2189     1.82675e-17 
        49.2463     1.89908e-17 
        49.2737     1.97426e-17 
         49.301     2.05242e-17 
        49.3284     2.13368e-17 
        49.3559     2.21815e-17 
        49.3833     2.30598e-17 
        49.4107     2.39727e-17 
        49.4382     2.49217e-17 
        49.4656     2.59084e-17 
        49.4932     2.69341e-17 
        49.5206     2.80005e-17 
        49.5481     2.91092e-17 
        49.5757     3.02616e-17 
        49.6032     3.14596e-17 
        49.6308      3.2705e-17 
        49.6584     3.39999e-17 
         49.686      3.5346e-17 
        49.7136     3.67453e-17 
        49.7412     3.82002e-17 
        49.7688     3.97125e-17 
        49.7965     4.12847e-17 
        49.8242     4.29193e-17 
        49.8519     4.46183e-17 
        49.8796     4.63849e-17 
        49.9073     4.82215e-17 
         49.935     5.01304e-17 
        49.9627     5.21152e-17 
        49.9906     5.41784e-17 
        50.0183     5.63234e-17 
        50.0462     5.85533e-17 
        50.0739     6.08715e-17 
        50.1018     6.32813e-17 
        50.1296     6.57868e-17 
        50.1574     6.83914e-17 
        50.1853      7.1099e-17 
        50.2132     7.39139e-17 
        50.2412     7.68401e-17 
         50.269     7.98823e-17 
         50.297      8.3045e-17 
        50.3249     8.63328e-17 
        50.3529     8.97508e-17 
        50.3809      9.3304e-17 
        50.4088      9.6998e-17 
        50.4369     1.00838e-16 
        50.4649      1.0483e-16 
         50.493     1.08981e-16 
         50.521     1.13296e-16 
        50.5491     1.17781e-16 
        50.5771     1.22421e-16 
        50.6053     1.27125e-16 
        50.6334      1.3201e-16 
        50.6616     1.37083e-16 
        50.6897     1.42352e-16 
        50.7179     1.47823e-16 
        50.7461     1.53503e-16 
        50.7742     1.59403e-16 
        50.8025     1.65529e-16 
        50.8307      1.7189e-16 
        50.8589     1.78496e-16 
        50.8872     1.85356e-16 
        50.9155     1.92479e-16 
        50.9438     1.99876e-16 
        50.9721     2.07558e-16 
        51.0004     2.15534e-16 
        51.0288     2.23817e-16 
        51.0571     2.32418e-16 
        51.0855     2.41351e-16 
        51.1139     2.50626e-16 
        51.1423     2.60257e-16 
        51.1707     2.70259e-16 
        51.1991     2.80646e-16 
        51.2276     2.91431e-16 
         51.256     3.02631e-16 
        51.2845     3.14261e-16 
        51.3131     3.26338e-16 
        51.3415      3.3888e-16 
          51.37     3.51904e-16 
        51.3987     3.65426e-16 
        51.4272      3.7947e-16 
        51.4557     3.94055e-16 
        51.4844     4.09198e-16 
        51.5129     4.24923e-16 
        51.5416     4.41252e-16 
        51.5703      4.5821e-16 
        51.5989     4.75821e-16 
        51.6276     4.94106e-16 
        51.6563     5.13095e-16 
         51.685     5.32814e-16 
        51.7137     5.53291e-16 
        51.7424     5.74553e-16 
        51.7712     5.96635e-16 
           51.8     6.19563e-16 
        51.8287     6.43374e-16 
        51.8575     6.68099e-16 
        51.8863     6.93775e-16 
        51.9152     7.20436e-16 
         51.944     7.48123e-16 
        51.9729     7.76875e-16 
        52.0018     8.06729e-16 
        52.0307     8.37733e-16 
        52.0596     8.69928e-16 
        52.0885      9.0336e-16 
        52.1175     9.38076e-16 
        52.1464     9.74127e-16 
        52.1754     1.01157e-15 
        52.2044     1.05044e-15 
        52.2334     1.09081e-15 
        52.2624     1.13273e-15 
        52.2915     1.17626e-15 
        52.3205     1.22147e-15 
        52.3496     1.26841e-15 
        52.3787     1.31715e-15 
        52.4078     1.36777e-15 
        52.4369     1.42034e-15 
        52.4661     1.47491e-15 
        52.4952      1.5316e-15 
        52.5244     1.59046e-15 
        52.5536     1.65159e-15 
        52.5828     1.71506e-15 
        52.6121     1.78097e-15 
        52.6413     1.84942e-15 
        52.6705     1.92049e-15 
        52.6997      1.9943e-15 
         52.729     2.07094e-15 
        52.7583     2.15053e-15 
        52.7877     2.23316e-15 
         52.817     2.31771e-15 
        52.8463     2.40347e-15 
        52.8758     2.49254e-15 
        52.9051     2.58492e-15 
        52.9345     2.68074e-15 
         52.964     2.78008e-15 
        52.9934     2.88312e-15 
        53.0228     2.98997e-15 
        53.0523      3.1008e-15 
        53.0818     3.21572e-15 
        53.1113      3.3349e-15 
        53.1407      3.4585e-15 
        53.1703     3.58668e-15 
        53.1999      3.7196e-15 
        53.2294     3.85746e-15 
         53.259     4.00042e-15 
        53.2886      4.1487e-15 
        53.3182     4.30246e-15 
        53.3478     4.46192e-15 
        53.3775     4.62729e-15 
        53.4071     4.79879e-15 
        53.4368     4.97665e-15 
        53.4665      5.1611e-15 
        53.4963     5.35238e-15 
         53.526     5.55075e-15 
        53.5557     5.75648e-15 
        53.5855     5.96983e-15 
        53.6153     6.19108e-15 
         53.645     6.42055e-15 
        53.6749     6.65849e-15 
        53.7047     6.90529e-15 
        53.7345     7.16122e-15 
        53.7644     7.42663e-15 
        53.7942     7.70189e-15 
        53.8242     7.98733e-15 
         53.854     8.28337e-15 
        53.8839     8.59038e-15 
        53.9139     8.90876e-15 
        53.9439     9.23894e-15 
        53.9739     9.58135e-15 
        54.0038     9.93647e-15 
        54.0339     1.03047e-14 
        54.0639     1.06866e-14 
         54.094     1.10827e-14 
         54.124     1.14935e-14 
         54.154     1.19195e-14 
        54.1842     1.23612e-14 
        54.2143     1.28194e-14 
        54.2444     1.32945e-14 
        54.2745     1.37872e-14 
        54.3047     1.42982e-14 
        54.3349     1.48281e-14 
        54.3651     1.53777e-14 
        54.3953     1.59476e-14 
        54.4255     1.65388e-14 
        54.4557     1.71517e-14 
         54.486     1.77874e-14 
        54.5163     1.84465e-14 
        54.5466     1.91302e-14 
        54.5769     1.98393e-14 
        54.6072     2.05746e-14 
        54.6376     2.13371e-14 
        54.6679     2.21279e-14 
        54.6984      2.2948e-14 
        54.7287     2.37986e-14 
        54.7591     2.46806e-14 
        54.7895     2.55954e-14 
          54.82      2.6544e-14 
        54.8505     2.75277e-14 
         54.881     2.85479e-14 
        54.9115      2.9606e-14 
         54.942     3.07033e-14 
        54.9725     3.18413e-14 
         55.003     3.30213e-14 
        55.0336     3.42452e-14 
        55.0642     3.55145e-14 
        55.0948     3.68307e-14 
        55.1254     3.81958e-14 
        55.1561     3.96114e-14 
        55.1867     4.10795e-14 
        55.2174     4.26019e-14 
         55.248     4.41656e-14 
        55.2788     4.57362e-14 
        55.3095     4.73632e-14 
        55.3402     4.90481e-14 
         55.371     5.07929e-14 
        55.4017     5.25999e-14 
        55.4325     5.44709e-14 
        55.4633     5.64087e-14 
        55.4941     5.84153e-14 
         55.525     6.04932e-14 
        55.5558     6.26452e-14 
        55.5867     6.48736e-14 
        55.6176     6.71812e-14 
        55.6485     6.95711e-14 
        55.6794     7.20461e-14 
        55.7104     7.46089e-14 
        55.7413      7.7263e-14 
        55.7723     8.00114e-14 
        55.8033     8.28578e-14 
        55.8343     8.58051e-14 
        55.8653     8.88575e-14 
        55.8964     9.20184e-14 
        55.9275     9.52917e-14 
        55.9586     9.86815e-14 
        55.9896     1.02192e-13 
        56.0208     1.05827e-13 
        56.0519     1.09592e-13 
         56.083      1.1349e-13 
        56.1142     1.17527e-13 
        56.1453     1.21709e-13 
        56.1766     1.26038e-13 
        56.2077     1.30521e-13 
        56.2391     1.35164e-13 
        56.2703     1.39972e-13 
        56.3016     1.44952e-13 
        56.3328     1.50109e-13 
        56.3642     1.55448e-13 
        56.3954     1.60978e-13 
        56.4268     1.66704e-13 
        56.4582     1.72634e-13 
        56.4896     1.78775e-13 
        56.5209     1.85136e-13 
        56.5523     1.91721e-13 
        56.5837     1.98541e-13 
        56.6152     2.05604e-13 
        56.6467     2.12917e-13 
        56.6782     2.20491e-13 
        56.7096     2.28336e-13 
        56.7412     2.36458e-13 
        56.7726     2.44869e-13 
        56.8043      2.5358e-13 
        56.8358       2.626e-13 
        56.8674     2.71941e-13 
         56.899     2.81615e-13 
        56.9306     2.91634e-13 
        56.9623     3.02008e-13 
        56.9939     3.12751e-13 
        57.0256     3.23876e-13 
        57.0572     3.35397e-13 
         57.089     3.47328e-13 
        57.1207     3.59684e-13 
        57.1524     3.72479e-13 
        57.1841      3.8573e-13 
         57.216      3.9945e-13 
        57.2478     4.13659e-13 
        57.2795     4.28376e-13 
        57.3114     4.43615e-13 
        57.3433     4.59395e-13 
        57.3751     4.75737e-13 
         57.407      4.9266e-13 
        57.4389     5.10185e-13 
        57.4708     5.28335e-13 
        57.5028     5.47129e-13 
        57.5347     5.66592e-13 
        57.5667     5.86746e-13 
        57.5987     6.07619e-13 
        57.6307     6.29234e-13 
        57.6627     6.51618e-13 
        57.6948     6.74796e-13 
        57.7268     6.98802e-13 
        57.7589      7.2366e-13 
         57.791     7.49404e-13 
        57.8231     7.76062e-13 
        57.8552     8.03669e-13 
        57.8874     8.32257e-13 
        57.9196      8.6159e-13 
        57.9517     8.90899e-13 
        57.9839     9.21184e-13 
        58.0162     9.52495e-13 
        58.0485     9.84873e-13 
        58.0806     1.01835e-12 
        58.1129     1.05297e-12 
        58.1453     1.08876e-12 
        58.1776     1.12577e-12 
        58.2099     1.16404e-12 
        58.2422      1.2036e-12 
        58.2746     1.24452e-12 
         58.307     1.28682e-12 
        58.3393     1.33057e-12 
        58.3718      1.3758e-12 
        58.4042     1.42256e-12 
        58.4367     1.47093e-12 
        58.4692     1.52092e-12 
        58.5017     1.57263e-12 
        58.5341     1.62608e-12 
        58.5667     1.68135e-12 
        58.5992     1.73851e-12 
        58.6318     1.79761e-12 
        58.6644     1.85871e-12 
         58.697     1.92189e-12 
        58.7296     1.98722e-12 
        58.7622     2.05478e-12 
        58.7949     2.12462e-12 
        58.8276     2.19684e-12 
        58.8603     2.27152e-12 
         58.893     2.34873e-12 
        58.9256     2.42858e-12 
        58.9584     2.51113e-12 
        58.9912     2.59649e-12 
         59.024     2.68474e-12 
        59.0568     2.77601e-12 
        59.0896     2.87037e-12 
        59.1224     2.96796e-12 
        59.1553     3.06884e-12 
        59.1882     3.17314e-12 
        59.2211     3.28102e-12 
         59.254     3.39255e-12 
        59.2869     3.50787e-12 
        59.3199     3.62711e-12 
        59.3529     3.75039e-12 
        59.3858     3.87789e-12 
        59.4187     4.00972e-12 
        59.4518       4.146e-12 
        59.4849     4.28694e-12 
        59.5179     4.43266e-12 
        59.5509     4.58335e-12 
        59.5841     4.73914e-12 
        59.6171     4.90025e-12 
        59.6503     5.06681e-12 
        59.6835     5.23905e-12 
        59.7166     5.41713e-12 
        59.7498     5.60127e-12 
         59.783     5.79169e-12 
        59.8162     5.98855e-12 
        59.8494     6.19213e-12 
        59.8827     6.40262e-12 
        59.9161     6.62024e-12 
        59.9493      6.8453e-12 
        59.9826     7.07798e-12 
         60.016     7.31856e-12 
        60.0493     7.56736e-12 
        60.0826      7.8246e-12 
        60.1161     8.09055e-12 
        60.1495     8.36556e-12 
        60.1829     8.64996e-12 
        60.2163     8.94399e-12 
        60.2499       9.248e-12 
        60.2833     9.56237e-12 
        60.3168     9.88743e-12 
        60.3503     1.02235e-11 
        60.3838     1.05711e-11 
        60.4174     1.09304e-11 
        60.4509      1.1302e-11 
        60.4846     1.16862e-11 
        60.5182     1.20834e-11 
        60.5518     1.24942e-11 
        60.5854     1.29188e-11 
        60.6191     1.33579e-11 
        60.6528      1.3812e-11 
        60.6865     1.42816e-11 
        60.7203      1.4767e-11 
         60.754      1.5269e-11 
        60.7878      1.5788e-11 
        60.8215     1.63246e-11 
        60.8554      1.6878e-11 
        60.8891     1.74277e-11 
         60.923     1.79912e-11 
        60.9568     1.85729e-11 
        60.9907     1.91735e-11 
        61.0246     1.97935e-11 
        61.0585     2.04335e-11 
        61.0925     2.10941e-11 
        61.1264     2.17763e-11 
        61.1604     2.24804e-11 
        61.1944     2.32072e-11 
        61.2284     2.39576e-11 
        61.2624     2.47324e-11 
        61.2965      2.5532e-11 
        61.3305     2.63576e-11 
        61.3646     2.72098e-11 
        61.3987     2.80897e-11 
        61.4328      2.8998e-11 
        61.4669     2.99356e-11 
        61.5011     3.09035e-11 
        61.5353     3.19028e-11 
        61.5694     3.29344e-11 
        61.6037     3.39992e-11 
        61.6379     3.50987e-11 
        61.6721     3.62335e-11 
        61.7064     3.74051e-11 
        61.7407     3.86145e-11 
         61.775     3.98631e-11 
        61.8093     4.11522e-11 
        61.8437     4.24826e-11 
        61.8781     4.38564e-11 
        61.9124     4.52745e-11 
        61.9469     4.67384e-11 
        61.9813     4.82496e-11 
        62.0157     4.98098e-11 
        62.0502     5.14203e-11 
        62.0846      5.3083e-11 
        62.1191     5.47995e-11 
        62.1536     5.65714e-11 
        62.1882     5.84006e-11 
        62.2228     6.02888e-11 
        62.2574     6.22381e-11 
        62.2919     6.42507e-11 
        62.3265     6.63283e-11 
        62.3613     6.84727e-11 
        62.3959     7.06868e-11 
        62.4305     7.29726e-11 
        62.4652     7.53321e-11 
