# TLUSTY OSTAR2002+BSTAR2006
# teff = 45000 K (value for the effective temperature for the model. Temperatures are given in K)
# logg = 4.75 log(cm/s2) (value for Log(G) for the model.)
# z = 0.5  (Z/Z0)
#
# column 1: WAVELENGTH (ANGSTROM), Wavelength in Angstrom
# column 2: FLUX (ERG/CM2/S/A), Flux in erg/cm2/s/A
        44.8829     1.92804e-21 
        44.9078     1.99146e-21 
        44.9328      2.0801e-21 
        44.9578     2.17268e-21 
        44.9827      2.2694e-21 
        45.0077     2.37043e-21 
        45.0327     2.47593e-21 
        45.0578     2.58615e-21 
        45.0828     2.70126e-21 
        45.1079     2.82151e-21 
        45.1329      2.9471e-21 
         45.158     3.07828e-21 
        45.1831     3.21532e-21 
        45.2082     3.35843e-21 
        45.2333     3.50794e-21 
        45.2585     3.66409e-21 
        45.2836     3.82718e-21 
        45.3088     3.99754e-21 
        45.3339     4.17548e-21 
        45.3592     4.36134e-21 
        45.3844     4.55548e-21 
        45.4096     4.75825e-21 
        45.4348     4.97008e-21 
        45.4601      5.1913e-21 
        45.4853     5.42239e-21 
        45.5106     5.66375e-21 
        45.5359     5.91588e-21 
        45.5612      6.1792e-21 
        45.5865     6.45426e-21 
        45.6118     6.74156e-21 
        45.6372     7.04166e-21 
        45.6626     7.35511e-21 
         45.688     7.68249e-21 
        45.7133     8.02447e-21 
        45.7388     8.38164e-21 
        45.7642     8.75474e-21 
        45.7896     9.14447e-21 
         45.815      9.5515e-21 
        45.8405     9.97668e-21 
         45.866     1.04207e-20 
        45.8915     1.08846e-20 
         45.917     1.13691e-20 
        45.9425     1.18752e-20 
         45.968     1.24038e-20 
        45.9936     1.29559e-20 
        46.0191     1.35326e-20 
        46.0447      1.4135e-20 
        46.0702     1.47643e-20 
        46.0959     1.54214e-20 
        46.1215     1.61079e-20 
        46.1471     1.68249e-20 
        46.1728     1.75738e-20 
        46.1984     1.83561e-20 
        46.2241     1.91732e-20 
        46.2498     2.00267e-20 
        46.2755     2.09181e-20 
        46.3012     2.18492e-20 
        46.3269     2.28219e-20 
        46.3527     2.38376e-20 
        46.3784     2.48988e-20 
        46.4042     2.60071e-20 
          46.43     2.71648e-20 
        46.4558     2.83739e-20 
        46.4816     2.96369e-20 
        46.5074     3.09563e-20 
        46.5333     3.23341e-20 
        46.5591     3.37735e-20 
         46.585     3.52769e-20 
        46.6109     3.68472e-20 
        46.6368     3.84792e-20 
        46.6627     4.01432e-20 
        46.6886     4.18805e-20 
        46.7146     4.36928e-20 
        46.7405     4.55837e-20 
        46.7665     4.75565e-20 
        46.7925     4.96145e-20 
        46.8185     5.17615e-20 
        46.8445     5.40014e-20 
        46.8705     5.63385e-20 
        46.8966     5.87766e-20 
        46.9226     6.13202e-20 
        46.9487     6.39737e-20 
        46.9748     6.67423e-20 
        47.0009     6.96307e-20 
        47.0271     7.26438e-20 
        47.0532     7.57875e-20 
        47.0794     7.90671e-20 
        47.1055      8.2489e-20 
        47.1317     8.60586e-20 
        47.1579      8.9783e-20 
        47.1841     9.36683e-20 
        47.2103     9.77218e-20 
        47.2366     1.01951e-19 
        47.2628     1.06363e-19 
         47.289     1.10966e-19 
        47.3154     1.15768e-19 
        47.3416     1.20778e-19 
        47.3679     1.26005e-19 
        47.3943     1.31457e-19 
        47.4206     1.37146e-19 
        47.4469     1.43081e-19 
        47.4733     1.49273e-19 
        47.4997     1.55733e-19 
        47.5261     1.62473e-19 
        47.5525     1.69504e-19 
        47.5789     1.76839e-19 
        47.6054     1.84491e-19 
        47.6318     1.92475e-19 
        47.6583     2.00806e-19 
        47.6847     2.09495e-19 
        47.7113     2.18561e-19 
        47.7378     2.28019e-19 
        47.7643     2.37887e-19 
        47.7908     2.48182e-19 
        47.8174     2.58921e-19 
         47.844     2.70126e-19 
        47.8706     2.81817e-19 
        47.8971     2.94013e-19 
        47.9238     3.06736e-19 
        47.9505      3.2001e-19 
        47.9771     3.33858e-19 
        48.0037     3.48307e-19 
        48.0304      3.6338e-19 
        48.0571     3.79105e-19 
        48.0838     3.95511e-19 
        48.1105     4.12627e-19 
        48.1372     4.30484e-19 
         48.164     4.49113e-19 
        48.1908     4.68548e-19 
        48.2175     4.88826e-19 
        48.2444     5.09978e-19 
        48.2712     5.32048e-19 
         48.298     5.55074e-19 
        48.3248     5.79095e-19 
        48.3517     6.04155e-19 
        48.3785     6.30301e-19 
        48.4054     6.57578e-19 
        48.4323     6.86035e-19 
        48.4592     7.15723e-19 
        48.4862     7.46695e-19 
        48.5131     7.79054e-19 
          48.54     8.11988e-19 
         48.567     8.45983e-19 
         48.594     8.81402e-19 
         48.621     9.18302e-19 
         48.648      9.5675e-19 
        48.6751     9.96803e-19 
        48.7022     1.03854e-18 
        48.7292     1.08202e-18 
        48.7563     1.12732e-18 
        48.7834     1.17451e-18 
        48.8105     1.22369e-18 
        48.8376     1.27492e-18 
        48.8647      1.3283e-18 
        48.8919     1.38391e-18 
         48.919     1.44185e-18 
        48.9463     1.50221e-18 
        48.9735     1.56511e-18 
        49.0007     1.63063e-18 
        49.0279      1.6989e-18 
        49.0551     1.77004e-18 
        49.0824     1.84413e-18 
        49.1097     1.92134e-18 
         49.137     2.00178e-18 
        49.1643     2.08559e-18 
        49.1916      2.1729e-18 
        49.2189     2.26388e-18 
        49.2463     2.35867e-18 
        49.2737      2.4574e-18 
         49.301     2.56029e-18 
        49.3284      2.6675e-18 
        49.3559     2.77916e-18 
        49.3833     2.89552e-18 
        49.4107     3.01675e-18 
        49.4382     3.14305e-18 
        49.4656     3.27464e-18 
        49.4932     3.41173e-18 
        49.5206     3.55458e-18 
        49.5481     3.70339e-18 
        49.5757     3.85845e-18 
        49.6032     4.01999e-18 
        49.6308     4.18828e-18 
        49.6584     4.36365e-18 
         49.686     4.54633e-18 
        49.7136     4.73667e-18 
        49.7412     4.93497e-18 
        49.7688      5.1416e-18 
        49.7965     5.35686e-18 
        49.8242     5.58113e-18 
        49.8519     5.81478e-18 
        49.8796     6.05822e-18 
        49.9073     6.31188e-18 
         49.935     6.57613e-18 
        49.9627     6.85146e-18 
        49.9906      7.1383e-18 
        50.0183     7.43715e-18 
        50.0462     7.74852e-18 
        50.0739     8.07294e-18 
        50.1018     8.41092e-18 
        50.1296     8.76306e-18 
        50.1574     9.12995e-18 
        50.1853     9.51219e-18 
        50.2132     9.91042e-18 
        50.2412     1.03253e-17 
         50.269     1.07576e-17 
         50.297      1.1208e-17 
        50.3249     1.16773e-17 
        50.3529     1.21662e-17 
        50.3809     1.26755e-17 
        50.4088     1.32062e-17 
        50.4369     1.37591e-17 
        50.4649     1.43351e-17 
         50.493     1.49352e-17 
         50.521     1.55606e-17 
        50.5491     1.62121e-17 
        50.5771     1.68864e-17 
        50.6053     1.75677e-17 
        50.6334     1.82763e-17 
        50.6616     1.90136e-17 
        50.6897     1.97807e-17 
        50.7179     2.05786e-17 
        50.7461     2.14088e-17 
        50.7742     2.22725e-17 
        50.8025     2.31708e-17 
        50.8307     2.41055e-17 
        50.8589     2.50781e-17 
        50.8872     2.60897e-17 
        50.9155     2.71422e-17 
        50.9438      2.8237e-17 
        50.9721     2.93761e-17 
        51.0004     3.05612e-17 
        51.0288      3.1794e-17 
        51.0571     3.30767e-17 
        51.0855      3.4411e-17 
        51.1139     3.57991e-17 
        51.1423     3.72433e-17 
        51.1707     3.87456e-17 
        51.1991     4.03088e-17 
        51.2276     4.19347e-17 
         51.256     4.36264e-17 
        51.2845     4.53863e-17 
        51.3131     4.72172e-17 
        51.3415      4.9122e-17 
          51.37     5.11037e-17 
        51.3987      5.3165e-17 
        51.4272     5.53097e-17 
        51.4557     5.75411e-17 
        51.4844     5.98622e-17 
        51.5129     6.22772e-17 
        51.5416     6.47893e-17 
        51.5703     6.74029e-17 
        51.5989     7.01222e-17 
        51.6276     7.29509e-17 
        51.6563     7.58936e-17 
         51.685     7.89552e-17 
        51.7137     8.21404e-17 
        51.7424     8.54539e-17 
        51.7712     8.89011e-17 
           51.8     9.24873e-17 
        51.8287     9.62184e-17 
        51.8575       1.001e-16 
        51.8863     1.04138e-16 
        51.9152     1.08339e-16 
         51.944     1.12709e-16 
        51.9729     1.17256e-16 
        52.0018     1.21986e-16 
        52.0307     1.26907e-16 
        52.0596     1.32027e-16 
        52.0885     1.37353e-16 
        52.1175     1.42893e-16 
        52.1464     1.48658e-16 
        52.1754     1.54654e-16 
        52.2044     1.60894e-16 
        52.2334     1.67385e-16 
        52.2624     1.74136e-16 
        52.2915     1.81161e-16 
        52.3205      1.8847e-16 
        52.3496     1.96072e-16 
        52.3787     2.03982e-16 
        52.4078     2.12211e-16 
        52.4369     2.20772e-16 
        52.4661     2.29676e-16 
        52.4952     2.38942e-16 
        52.5244     2.48581e-16 
        52.5536     2.58609e-16 
        52.5828     2.69042e-16 
        52.6121     2.79895e-16 
        52.6413     2.91185e-16 
        52.6705     3.02933e-16 
        52.6997     3.15153e-16 
         52.729     3.27867e-16 
        52.7583     3.41093e-16 
        52.7877     3.54851e-16 
         52.817     3.68921e-16 
        52.8463      3.8318e-16 
        52.8758     3.98014e-16 
        52.9051     4.13425e-16 
        52.9345     4.29429e-16 
         52.964     4.46053e-16 
        52.9934     4.63323e-16 
        53.0228      4.8126e-16 
        53.0523     4.99892e-16 
        53.0818     5.19245e-16 
        53.1113     5.39346e-16 
        53.1407     5.60228e-16 
        53.1703     5.81914e-16 
        53.1999     6.04444e-16 
        53.2294     6.27844e-16 
         53.259      6.5215e-16 
        53.2886       6.774e-16 
        53.3182     7.03623e-16 
        53.3478     7.30863e-16 
        53.3775     7.59158e-16 
        53.4071     7.88549e-16 
        53.4368     8.19075e-16 
        53.4665     8.50787e-16 
        53.4963     8.83723e-16 
         53.526     9.17936e-16 
        53.5557     9.53473e-16 
        53.5855     9.90386e-16 
        53.6153     1.02873e-15 
         53.645     1.06856e-15 
        53.6749     1.10992e-15 
        53.7047     1.15289e-15 
        53.7345     1.19753e-15 
        53.7644     1.24389e-15 
        53.7942     1.29205e-15 
        53.8242     1.34206e-15 
         53.854     1.39403e-15 
        53.8839     1.44799e-15 
        53.9139     1.50405e-15 
        53.9439     1.56227e-15 
        53.9739     1.62275e-15 
        54.0038     1.68558e-15 
        54.0339     1.75084e-15 
        54.0639     1.81862e-15 
         54.094     1.88902e-15 
         54.124     1.96216e-15 
         54.154     2.03812e-15 
        54.1842     2.11702e-15 
        54.2143     2.19898e-15 
        54.2444     2.28412e-15 
        54.2745     2.37255e-15 
        54.3047     2.46439e-15 
        54.3349      2.5598e-15 
        54.3651      2.6589e-15 
        54.3953     2.76184e-15 
        54.4255     2.86877e-15 
        54.4557     2.97983e-15 
         54.486     3.09518e-15 
        54.5163     3.21501e-15 
        54.5466     3.33948e-15 
        54.5769     3.46877e-15 
        54.6072     3.60306e-15 
        54.6376     3.74255e-15 
        54.6679     3.88743e-15 
        54.6984     4.03792e-15 
        54.7287     4.19426e-15 
        54.7591     4.35664e-15 
        54.7895      4.5253e-15 
          54.82     4.70049e-15 
        54.8505     4.88247e-15 
         54.881     5.07148e-15 
        54.9115     5.26782e-15 
         54.942     5.47177e-15 
        54.9725      5.6836e-15 
         55.003     5.90364e-15 
        55.0336     6.13218e-15 
        55.0642     6.36961e-15 
        55.0948     6.61617e-15 
        55.1254     6.87232e-15 
        55.1561     7.13838e-15 
        55.1867     7.41473e-15 
        55.2174     7.70179e-15 
         55.248     7.99677e-15 
        55.2788     8.29274e-15 
        55.3095     8.59973e-15 
        55.3402     8.91807e-15 
         55.371      9.2482e-15 
        55.4017     9.59058e-15 
        55.4325     9.94559e-15 
        55.4633     1.03138e-14 
        55.4941     1.06956e-14 
         55.525     1.10915e-14 
        55.5558     1.15021e-14 
        55.5867     1.19279e-14 
        55.6176     1.23694e-14 
        55.6485     1.28274e-14 
        55.6794     1.33021e-14 
        55.7104     1.37946e-14 
        55.7413     1.43052e-14 
        55.7723     1.48347e-14 
        55.8033      1.5384e-14 
        55.8343     1.59534e-14 
        55.8653      1.6544e-14 
        55.8964     1.71564e-14 
        55.9275     1.77914e-14 
        55.9586     1.84501e-14 
        55.9896     1.91331e-14 
        56.0208     1.98413e-14 
        56.0519     2.05758e-14 
         56.083     2.13375e-14 
        56.1142     2.21274e-14 
        56.1453     2.29466e-14 
        56.1766      2.3796e-14 
        56.2077     2.46768e-14 
        56.2391     2.55903e-14 
        56.2703     2.65375e-14 
        56.3016     2.75199e-14 
        56.3328     2.85388e-14 
        56.3642     2.95951e-14 
        56.3954     3.06908e-14 
        56.4268     3.18268e-14 
        56.4582     3.30049e-14 
        56.4896     3.42268e-14 
        56.5209     3.54938e-14 
        56.5523     3.68077e-14 
        56.5837     3.81703e-14 
        56.6152     3.95832e-14 
        56.6467     4.10485e-14 
        56.6782     4.25681e-14 
        56.7096     4.41439e-14 
        56.7412     4.57781e-14 
        56.7726     4.74727e-14 
        56.8043     4.92299e-14 
        56.8358     5.10523e-14 
        56.8674     5.29422e-14 
         56.899      5.4902e-14 
        56.9306     5.69345e-14 
        56.9623      5.9042e-14 
        56.9939     6.12277e-14 
        57.0256     6.34943e-14 
        57.0572     6.58446e-14 
         57.089     6.82821e-14 
        57.1207     7.08097e-14 
        57.1524     7.34311e-14 
        57.1841     7.61495e-14 
         57.216     7.89681e-14 
        57.2478     8.18913e-14 
        57.2795     8.49231e-14 
        57.3114     8.80666e-14 
        57.3433     9.13266e-14 
        57.3751     9.47074e-14 
         57.407     9.82134e-14 
        57.4389     1.01849e-13 
        57.4708     1.05619e-13 
        57.5028     1.09529e-13 
        57.5347     1.13584e-13 
        57.5667     1.17788e-13 
        57.5987     1.22149e-13 
        57.6307      1.2667e-13 
        57.6627      1.3136e-13 
        57.6948     1.36222e-13 
        57.7268     1.41265e-13 
        57.7589     1.46494e-13 
         57.791     1.51917e-13 
        57.8231     1.57541e-13 
        57.8552     1.63373e-13 
        57.8874      1.6942e-13 
        57.9196      1.7563e-13 
        57.9517     1.81828e-13 
        57.9839     1.88241e-13 
        58.0162     1.94879e-13 
        58.0485     2.01752e-13 
        58.0806     2.08867e-13 
        58.1129     2.16233e-13 
        58.1453     2.23858e-13 
        58.1776     2.31753e-13 
        58.2099     2.39926e-13 
        58.2422     2.48387e-13 
        58.2746     2.57146e-13 
         58.307     2.66214e-13 
        58.3393     2.75603e-13 
        58.3718     2.85322e-13 
        58.4042     2.95384e-13 
        58.4367     3.05801e-13 
        58.4692     3.16586e-13 
        58.5017      3.2775e-13 
        58.5341     3.39308e-13 
        58.5667     3.51273e-13 
        58.5992     3.63662e-13 
        58.6318     3.76487e-13 
        58.6644     3.89764e-13 
         58.697     4.03508e-13 
        58.7296     4.17738e-13 
        58.7622     4.32471e-13 
        58.7949     4.47721e-13 
        58.8276     4.63511e-13 
        58.8603     4.79856e-13 
         58.893     4.96779e-13 
        58.9256     5.14299e-13 
        58.9584     5.32435e-13 
        58.9912     5.51213e-13 
         59.024      5.7065e-13 
        59.0568     5.90774e-13 
        59.0896     6.11608e-13 
        59.1224     6.33179e-13 
        59.1553     6.55507e-13 
        59.1882     6.78622e-13 
        59.2211     7.02555e-13 
         59.254     7.27332e-13 
        59.2869     7.52981e-13 
        59.3199     7.79535e-13 
        59.3529     8.07025e-13 
        59.3858     8.35487e-13 
        59.4187     8.64952e-13 
        59.4518     8.95452e-13 
        59.4849      9.2703e-13 
        59.5179     9.59723e-13 
        59.5509     9.93571e-13 
        59.5841     1.02861e-12 
        59.6171     1.06489e-12 
        59.6503     1.10243e-12 
        59.6835     1.14131e-12 
        59.7166     1.18156e-12 
        59.7498     1.22323e-12 
         59.783     1.26637e-12 
        59.8162     1.31102e-12 
        59.8494     1.35727e-12 
        59.8827     1.40513e-12 
        59.9161     1.45468e-12 
        59.9493     1.50598e-12 
        59.9826     1.55909e-12 
         60.016     1.61407e-12 
        60.0493     1.67099e-12 
        60.0826     1.72992e-12 
        60.1161     1.79092e-12 
        60.1495     1.85408e-12 
        60.1829     1.91948e-12 
        60.2163     1.98716e-12 
        60.2499     2.05723e-12 
        60.2833     2.12979e-12 
        60.3168     2.20489e-12 
        60.3503     2.28266e-12 
        60.3838     2.36315e-12 
        60.4174     2.44648e-12 
        60.4509     2.53277e-12 
        60.4846     2.62208e-12 
        60.5182     2.71455e-12 
        60.5518     2.81028e-12 
        60.5854      2.9094e-12 
        60.6191       3.012e-12 
        60.6528      3.1182e-12 
        60.6865     3.22818e-12 
        60.7203     3.34201e-12 
         60.754     3.45987e-12 
        60.7878     3.58189e-12 
        60.8215      3.7082e-12 
        60.8554     3.83859e-12 
        60.8891     3.96804e-12 
         60.923     4.10083e-12 
        60.9568     4.23808e-12 
        60.9907     4.37992e-12 
        61.0246     4.52651e-12 
        61.0585       4.678e-12 
        61.0925     4.83455e-12 
        61.1264     4.99636e-12 
        61.1604     5.16356e-12 
        61.1944     5.33638e-12 
        61.2284     5.51498e-12 
        61.2624     5.69956e-12 
        61.2965      5.8903e-12 
        61.3305     6.08745e-12 
        61.3646     6.29117e-12 
        61.3987     6.50173e-12 
        61.4328     6.71934e-12 
        61.4669     6.94421e-12 
        61.5011     7.17662e-12 
        61.5353     7.41679e-12 
        61.5694     7.66503e-12 
        61.6037     7.92154e-12 
        61.6379     8.18667e-12 
        61.6721     8.46066e-12 
        61.7064     8.74382e-12 
        61.7407     9.03645e-12 
         61.775     9.33887e-12 
        61.8093     9.65144e-12 
        61.8437     9.97447e-12 
        61.8781     1.03083e-11 
        61.9124     1.06533e-11 
        61.9469     1.10098e-11 
        61.9813     1.13783e-11 
        62.0157     1.17591e-11 
        62.0502     1.21526e-11 
        62.0846     1.25594e-11 
        62.1191     1.29797e-11 
        62.1536     1.34141e-11 
        62.1882     1.38631e-11 
        62.2228      1.4327e-11 
        62.2574     1.48065e-11 
        62.2919      1.5302e-11 
        62.3265     1.58141e-11 
        62.3613     1.63434e-11 
        62.3959     1.68903e-11 
        62.4305     1.74556e-11 
        62.4652     1.80399e-11 
