# TLUSTY OSTAR2002+BSTAR2006
# teff = 47500 K (value for the effective temperature for the model. Temperatures are given in K)
# logg = 4 log(cm/s2) (value for Log(G) for the model.)
# z = 0.5  (Z/Z0)
#
# column 1: WAVELENGTH (ANGSTROM), Wavelength in Angstrom
# column 2: FLUX (ERG/CM2/S/A), Flux in erg/cm2/s/A
        44.8829     3.88624e-18 
        44.9078      3.9958e-18 
        44.9328     4.14832e-18 
        44.9578     4.30665e-18 
        44.9827     4.47104e-18 
        45.0077     4.64169e-18 
        45.0327     4.81887e-18 
        45.0578     5.00281e-18 
        45.0828     5.19378e-18 
        45.1079       5.392e-18 
        45.1329     5.59781e-18 
         45.158     5.81147e-18 
        45.1831     6.03332e-18 
        45.2082      6.2636e-18 
        45.2333     6.50268e-18 
        45.2585     6.75089e-18 
        45.2836     7.00857e-18 
        45.3088     7.27607e-18 
        45.3339     7.55381e-18 
        45.3592     7.84211e-18 
        45.3844     8.14145e-18 
        45.4096      8.4522e-18 
        45.4348     8.77484e-18 
        45.4601     9.10977e-18 
        45.4853     9.45748e-18 
        45.5106     9.81847e-18 
        45.5359     1.01932e-17 
        45.5612     1.05823e-17 
        45.5865     1.09862e-17 
        45.6118     1.14056e-17 
        45.6372     1.18409e-17 
        45.6626     1.22929e-17 
         45.688     1.27621e-17 
        45.7133     1.32492e-17 
        45.7388     1.37549e-17 
        45.7642       1.428e-17 
        45.7896      1.4825e-17 
         45.815     1.53909e-17 
        45.8405     1.59784e-17 
         45.866     1.65882e-17 
        45.8915     1.72214e-17 
         45.917     1.78787e-17 
        45.9425     1.85612e-17 
         45.968     1.92696e-17 
        45.9936     2.00052e-17 
        46.0191     2.07688e-17 
        46.0447     2.15615e-17 
        46.0702     2.23844e-17 
        46.0959     2.32389e-17 
        46.1215     2.41259e-17 
        46.1471     2.50468e-17 
        46.1728     2.60027e-17 
        46.1984     2.69954e-17 
        46.2241     2.80257e-17 
        46.2498     2.90955e-17 
        46.2755      3.0206e-17 
        46.3012      3.1359e-17 
        46.3269      3.2556e-17 
        46.3527     3.37985e-17 
        46.3784     3.50886e-17 
        46.4042     3.64281e-17 
          46.43     3.78185e-17 
        46.4558     3.92621e-17 
        46.4816     4.07606e-17 
        46.5074     4.23165e-17 
        46.5333     4.39316e-17 
        46.5591     4.56085e-17 
         46.585     4.73494e-17 
        46.6109     4.91567e-17 
        46.6368     5.10291e-17 
        46.6627     5.29459e-17 
        46.6886     5.49364e-17 
        46.7146     5.70018e-17 
        46.7405      5.9145e-17 
        46.7665     6.13688e-17 
        46.7925     6.36761e-17 
        46.8185     6.60703e-17 
        46.8445     6.85541e-17 
        46.8705     7.11318e-17 
        46.8966     7.38061e-17 
        46.9226     7.65812e-17 
        46.9487     7.94604e-17 
        46.9748     8.24478e-17 
        47.0009     8.55477e-17 
        47.0271     8.87639e-17 
        47.0532     9.21014e-17 
        47.0794      9.5564e-17 
        47.1055     9.91572e-17 
        47.1317     1.02885e-16 
        47.1579     1.06753e-16 
        47.1841     1.10767e-16 
        47.2103     1.14932e-16 
        47.2366     1.19253e-16 
        47.2628     1.23736e-16 
         47.289     1.28389e-16 
        47.3154     1.33216e-16 
        47.3416     1.38225e-16 
        47.3679     1.43421e-16 
        47.3943     1.48813e-16 
        47.4206     1.54409e-16 
        47.4469     1.60214e-16 
        47.4733     1.66238e-16 
        47.4997     1.72487e-16 
        47.5261     1.78973e-16 
        47.5525     1.85701e-16 
        47.5789     1.92684e-16 
        47.6054     1.99927e-16 
        47.6318     2.07445e-16 
        47.6583     2.15244e-16 
        47.6847     2.23338e-16 
        47.7113     2.31735e-16 
        47.7378     2.40447e-16 
        47.7643     2.49487e-16 
        47.7908     2.58868e-16 
        47.8174     2.68601e-16 
         47.844     2.78699e-16 
        47.8706     2.89177e-16 
        47.8971     3.00049e-16 
        47.9238     3.11331e-16 
        47.9505     3.23036e-16 
        47.9771     3.35182e-16 
        48.0037     3.47784e-16 
        48.0304     3.60858e-16 
        48.0571     3.74427e-16 
        48.0838     3.88504e-16 
        48.1105     4.03112e-16 
        48.1372     4.18267e-16 
         48.164     4.33992e-16 
        48.1908     4.50309e-16 
        48.2175     4.67241e-16 
        48.2444     4.84807e-16 
        48.2712     5.03035e-16 
         48.298     5.21948e-16 
        48.3248     5.41574e-16 
        48.3517     5.61934e-16 
        48.3785     5.83062e-16 
        48.4054     6.04984e-16 
        48.4323      6.2773e-16 
        48.4592     6.51331e-16 
        48.4862     6.75819e-16 
        48.5131     7.01262e-16 
          48.54     7.27211e-16 
         48.567     7.53961e-16 
         48.594     7.81692e-16 
         48.621     8.10443e-16 
         48.648     8.40254e-16 
        48.6751     8.71159e-16 
        48.7022     9.03203e-16 
        48.7292     9.36424e-16 
        48.7563      9.7087e-16 
        48.7834     1.00658e-15 
        48.8105      1.0436e-15 
        48.8376     1.08199e-15 
        48.8647     1.12179e-15 
        48.8919     1.16305e-15 
         48.919     1.20583e-15 
        48.9463     1.25018e-15 
        48.9735     1.29617e-15 
        49.0007     1.34384e-15 
        49.0279     1.39327e-15 
        49.0551     1.44452e-15 
        49.0824     1.49765e-15 
        49.1097     1.55274e-15 
         49.137     1.60986e-15 
        49.1643     1.66908e-15 
        49.1916     1.73046e-15 
        49.2189     1.79412e-15 
        49.2463     1.86011e-15 
        49.2737     1.92851e-15 
         49.301     1.99946e-15 
        49.3284     2.07301e-15 
        49.3559     2.14925e-15 
        49.3833     2.22831e-15 
        49.4107     2.31027e-15 
        49.4382     2.39525e-15 
        49.4656     2.48335e-15 
        49.4932     2.57469e-15 
        49.5206      2.6694e-15 
        49.5481     2.76759e-15 
        49.5757     2.86938e-15 
        49.6032     2.97493e-15 
        49.6308     3.08434e-15 
        49.6584     3.19779e-15 
         49.686     3.31542e-15 
        49.7136     3.43737e-15 
        49.7412      3.5638e-15 
        49.7688      3.6949e-15 
        49.7965     3.83079e-15 
        49.8242     3.97171e-15 
        49.8519     4.11779e-15 
        49.8796     4.26924e-15 
        49.9073     4.42629e-15 
         49.935     4.58909e-15 
        49.9627      4.7579e-15 
        49.9906     4.93288e-15 
        50.0183     5.11434e-15 
        50.0462     5.30245e-15 
        50.0739      5.4975e-15 
        50.1018      5.6997e-15 
        50.1296     5.90936e-15 
        50.1574     6.12672e-15 
        50.1853     6.35208e-15 
        50.2132     6.58571e-15 
        50.2412     6.82793e-15 
         50.269     7.07909e-15 
         50.297     7.33948e-15 
        50.3249     7.60944e-15 
        50.3529     7.88934e-15 
        50.3809     8.17952e-15 
        50.4088      8.4804e-15 
        50.4369     8.79231e-15 
        50.4649     9.11571e-15 
         50.493       9.451e-15 
         50.521     9.79865e-15 
        50.5491     1.01591e-14 
        50.5771      1.0531e-14 
        50.6053     1.09076e-14 
        50.6334     1.12978e-14 
        50.6616      1.1702e-14 
        50.6897     1.21206e-14 
        50.7179     1.25542e-14 
        50.7461     1.30033e-14 
        50.7742     1.34685e-14 
        50.8025     1.39503e-14 
        50.8307     1.44493e-14 
        50.8589     1.49662e-14 
        50.8872     1.55015e-14 
        50.9155      1.6056e-14 
        50.9438     1.66304e-14 
        50.9721     1.72253e-14 
        51.0004     1.78416e-14 
        51.0288     1.84798e-14 
        51.0571     1.91408e-14 
        51.0855     1.98256e-14 
        51.1139     2.05348e-14 
        51.1423     2.12693e-14 
        51.1707     2.20302e-14 
        51.1991     2.28182e-14 
        51.2276     2.36346e-14 
         51.256       2.448e-14 
        51.2845     2.53557e-14 
        51.3131     2.62628e-14 
        51.3415     2.72022e-14 
          51.37     2.81754e-14 
        51.3987     2.91832e-14 
        51.4272     3.02272e-14 
        51.4557     3.13085e-14 
        51.4844     3.24285e-14 
        51.5129     3.35885e-14 
        51.5416       3.479e-14 
        51.5703     3.60346e-14 
        51.5989     3.73236e-14 
        51.6276     3.86588e-14 
        51.6563     4.00416e-14 
         51.685      4.1474e-14 
        51.7137     4.29577e-14 
        51.7424     4.44945e-14 
        51.7712     4.60862e-14 
           51.8     4.77346e-14 
        51.8287     4.94423e-14 
        51.8575      5.1211e-14 
        51.8863      5.3043e-14 
        51.9152     5.49404e-14 
         51.944     5.69057e-14 
        51.9729     5.89415e-14 
        52.0018     6.10499e-14 
        52.0307     6.32337e-14 
        52.0596     6.54959e-14 
        52.0885     6.78387e-14 
        52.1175     7.02653e-14 
        52.1464     7.27791e-14 
        52.1754     7.53827e-14 
        52.2044     7.80793e-14 
        52.2334     8.08724e-14 
        52.2624     8.37654e-14 
        52.2915     8.67617e-14 
        52.3205     8.98655e-14 
        52.3496     9.30803e-14 
        52.3787     9.64101e-14 
        52.4078     9.98588e-14 
        52.4369     1.03431e-13 
        52.4661     1.07131e-13 
        52.4952     1.10963e-13 
        52.5244     1.14933e-13 
        52.5536     1.19044e-13 
        52.5828     1.23303e-13 
        52.6121     1.27713e-13 
        52.6413     1.32282e-13 
        52.6705     1.37014e-13 
        52.6997     1.41915e-13 
         52.729     1.46992e-13 
        52.7583      1.5225e-13 
        52.7877     1.57697e-13 
         52.817     1.63258e-13 
        52.8463     1.68893e-13 
        52.8758     1.74732e-13 
        52.9051     1.80773e-13 
        52.9345     1.87023e-13 
         52.964     1.93489e-13 
        52.9934     2.00177e-13 
        53.0228     2.07097e-13 
        53.0523     2.14257e-13 
        53.0818     2.21664e-13 
        53.1113     2.29327e-13 
        53.1407     2.37256e-13 
        53.1703     2.45458e-13 
        53.1999     2.53944e-13 
        53.2294     2.62723e-13 
         53.259     2.71805e-13 
        53.2886     2.81202e-13 
        53.3182     2.90923e-13 
        53.3478     3.00981e-13 
        53.3775     3.11387e-13 
        53.4071     3.22151e-13 
        53.4368     3.33288e-13 
        53.4665     3.44811e-13 
        53.4963     3.56731e-13 
         53.526     3.69063e-13 
        53.5557     3.81822e-13 
        53.5855     3.95022e-13 
        53.6153     4.08678e-13 
         53.645     4.22808e-13 
        53.6749     4.37424e-13 
        53.7047     4.52546e-13 
        53.7345     4.68191e-13 
        53.7644     4.84377e-13 
        53.7942     5.01123e-13 
        53.8242     5.18448e-13 
         53.854     5.36371e-13 
        53.8839     5.54914e-13 
        53.9139     5.74098e-13 
        53.9439     5.93945e-13 
        53.9739     6.14478e-13 
        54.0038     6.35723e-13 
        54.0339     6.57699e-13 
        54.0639     6.80436e-13 
         54.094     7.03959e-13 
         54.124     7.28295e-13 
         54.154     7.53476e-13 
        54.1842     7.79523e-13 
        54.2143     8.06472e-13 
        54.2444     8.34353e-13 
        54.2745     8.63197e-13 
        54.3047     8.93038e-13 
        54.3349     9.23911e-13 
        54.3651     9.55852e-13 
        54.3953     9.88898e-13 
        54.4255     1.02309e-12 
        54.4557     1.05846e-12 
         54.486     1.09505e-12 
        54.5163      1.1329e-12 
        54.5466     1.17207e-12 
        54.5769     1.21259e-12 
        54.6072     1.25451e-12 
        54.6376     1.29788e-12 
        54.6679     1.34275e-12 
        54.6984     1.38917e-12 
        54.7287      1.4372e-12 
        54.7591     1.48688e-12 
        54.7895     1.53829e-12 
          54.82     1.59146e-12 
        54.8505     1.64648e-12 
         54.881      1.7034e-12 
        54.9115     1.76229e-12 
         54.942     1.82321e-12 
        54.9725     1.88625e-12 
         55.003     1.95146e-12 
        55.0336     2.01892e-12 
        55.0642     2.08871e-12 
        55.0948     2.16093e-12 
        55.1254     2.23563e-12 
        55.1561     2.31292e-12 
        55.1867     2.39288e-12 
        55.2174      2.4756e-12 
         55.248     2.56039e-12 
        55.2788      2.6455e-12 
        55.3095     2.73347e-12 
        55.3402     2.82436e-12 
         55.371     2.91826e-12 
        55.4017      3.0153e-12 
        55.4325     3.11556e-12 
        55.4633     3.21916e-12 
        55.4941      3.3262e-12 
         55.525     3.43678e-12 
        55.5558     3.55107e-12 
        55.5867     3.66913e-12 
        55.6176     3.79112e-12 
        55.6485     3.91718e-12 
        55.6794     4.04743e-12 
        55.7104       4.182e-12 
        55.7413     4.32105e-12 
        55.7723     4.46472e-12 
        55.8033     4.61319e-12 
        55.8343     4.76656e-12 
        55.8653     4.92505e-12 
        55.8964     5.08882e-12 
        55.9275     5.25801e-12 
        55.9586     5.43283e-12 
        55.9896     5.61349e-12 
        56.0208     5.80013e-12 
        56.0519     5.99298e-12 
         56.083     6.19225e-12 
        56.1142     6.39813e-12 
        56.1453      6.6109e-12 
        56.1766      6.8307e-12 
        56.2077     7.05783e-12 
        56.2391     7.29247e-12 
        56.2703     7.53496e-12 
        56.3016     7.78548e-12 
        56.3328     8.04437e-12 
        56.3642     8.31183e-12 
        56.3954     8.58822e-12 
        56.4268     8.87374e-12 
        56.4582      9.1688e-12 
        56.4896     9.47366e-12 
        56.5209     9.78868e-12 
        56.5523     1.01141e-11 
        56.5837     1.04505e-11 
        56.6152     1.07979e-11 
        56.6467     1.11569e-11 
        56.6782     1.15279e-11 
        56.7096     1.19112e-11 
        56.7412     1.23073e-11 
        56.7726     1.27166e-11 
        56.8043     1.31393e-11 
        56.8358     1.35761e-11 
        56.8674     1.40276e-11 
         56.899      1.4494e-11 
        56.9306     1.49759e-11 
        56.9623     1.54738e-11 
        56.9939     1.59884e-11 
        57.0256       1.652e-11 
        57.0572     1.70693e-11 
         57.089     1.76368e-11 
        57.1207     1.82232e-11 
        57.1524     1.88291e-11 
        57.1841     1.94553e-11 
         57.216     2.01021e-11 
        57.2478     2.07705e-11 
        57.2795     2.14611e-11 
        57.3114     2.21748e-11 
        57.3433      2.2912e-11 
        57.3751     2.36738e-11 
         57.407      2.4461e-11 
        57.4389     2.52744e-11 
        57.4708     2.61148e-11 
        57.5028      2.6983e-11 
        57.5347     2.78802e-11 
        57.5667     2.88072e-11 
        57.5987      2.9765e-11 
        57.6307     3.07547e-11 
        57.6627     3.17773e-11 
        57.6948     3.28338e-11 
        57.7268     3.39257e-11 
        57.7589     3.50536e-11 
         57.791     3.62192e-11 
        57.8231     3.74235e-11 
        57.8552     3.86678e-11 
        57.8874     3.99535e-11 
        57.9196     4.12702e-11 
        57.9517     4.25854e-11 
        57.9839     4.39416e-11 
        58.0162     4.53406e-11 
        58.0485     4.67845e-11 
        58.0806     4.82744e-11 
        58.1129     4.98116e-11 
        58.1453     5.13977e-11 
        58.1776     5.30344e-11 
        58.2099     5.47234e-11 
        58.2422      5.6466e-11 
        58.2746      5.8264e-11 
         58.307     6.01193e-11 
        58.3393     6.20339e-11 
        58.3718     6.40091e-11 
        58.4042     6.60475e-11 
        58.4367     6.81507e-11 
        58.4692     7.03208e-11 
        58.5017       7.256e-11 
        58.5341     7.48708e-11 
        58.5667     7.72547e-11 
        58.5992      7.9715e-11 
        58.6318     8.22534e-11 
        58.6644     8.48727e-11 
         58.697     8.75752e-11 
        58.7296     9.03639e-11 
        58.7622     9.32415e-11 
        58.7949     9.62105e-11 
        58.8276     9.92743e-11 
        58.8603     1.02436e-10 
         58.893     1.05697e-10 
        58.9256     1.09063e-10 
        58.9584     1.12536e-10 
        58.9912      1.1612e-10 
         59.024     1.19818e-10 
        59.0568     1.23633e-10 
        59.0896     1.27569e-10 
        59.1224     1.31633e-10 
        59.1553     1.35824e-10 
        59.1882     1.40149e-10 
        59.2211     1.44612e-10 
         59.254     1.49216e-10 
        59.2869     1.53968e-10 
        59.3199     1.58872e-10 
        59.3529      1.6393e-10 
        59.3858      1.6915e-10 
        59.4187     1.74537e-10 
        59.4518     1.80095e-10 
        59.4849      1.8583e-10 
        59.5179     1.91747e-10 
        59.5509     1.97854e-10 
        59.5841     2.04154e-10 
        59.6171     2.10655e-10 
        59.6503     2.17363e-10 
        59.6835     2.24285e-10 
        59.7166     2.31426e-10 
        59.7498     2.38796e-10 
         59.783     2.46401e-10 
        59.8162     2.54247e-10 
        59.8494     2.62343e-10 
        59.8827     2.70697e-10 
        59.9161     2.79316e-10 
        59.9493     2.88212e-10 
        59.9826     2.97389e-10 
         60.016     3.06858e-10 
        60.0493      3.1663e-10 
        60.0826     3.26714e-10 
        60.1161     3.37116e-10 
        60.1495     3.47851e-10 
        60.1829     3.58929e-10 
        60.2163     3.70359e-10 
        60.2499     3.82151e-10 
        60.2833     3.94321e-10 
        60.3168     4.06878e-10 
        60.3503     4.19834e-10 
        60.3838     4.33203e-10 
        60.4174     4.46998e-10 
        60.4509     4.61233e-10 
        60.4846     4.75919e-10 
        60.5182     4.91075e-10 
        60.5518     5.06713e-10 
        60.5854     5.22848e-10 
        60.6191     5.39497e-10 
        60.6528     5.56676e-10 
        60.6865     5.74404e-10 
        60.7203     5.92694e-10 
         60.754     6.11568e-10 
        60.7878     6.31043e-10 
        60.8215     6.51137e-10 
        60.8554     6.71815e-10 
        60.8891     6.92355e-10 
         60.923     7.13375e-10 
        60.9568     7.35036e-10 
        60.9907     7.57354e-10 
        61.0246      7.8035e-10 
        61.0585     8.04042e-10 
        61.0925     8.28454e-10 
        61.1264      8.5361e-10 
        61.1604     8.79525e-10 
        61.1944     9.06231e-10 
        61.2284     9.33746e-10 
        61.2624     9.62097e-10 
        61.2965     9.91307e-10 
        61.3305      1.02141e-9 
        61.3646      1.05242e-9 
        61.3987      1.08437e-9 
        61.4328       1.1173e-9 
        61.4669      1.15123e-9 
        61.5011      1.18617e-9 
        61.5353      1.22219e-9 
        61.5694       1.2593e-9 
        61.6037      1.29754e-9 
        61.6379      1.33693e-9 
        61.6721      1.37752e-9 
        61.7064      1.41935e-9 
        61.7407      1.46244e-9 
         61.775      1.50685e-9 
        61.8093       1.5526e-9 
        61.8437      1.59974e-9 
        61.8781      1.64831e-9 
        61.9124      1.69836e-9 
        61.9469      1.74992e-9 
        61.9813      1.80306e-9 
        62.0157      1.85781e-9 
        62.0502      1.91421e-9 
        62.0846      1.97234e-9 
        62.1191      2.03222e-9 
        62.1536      2.09393e-9 
        62.1882       2.1575e-9 
        62.2228        2.223e-9 
        62.2574      2.29049e-9 
        62.2919      2.36005e-9 
        62.3265      2.43171e-9 
        62.3613      2.50553e-9 
        62.3959       2.5816e-9 
        62.4305      2.65999e-9 
        62.4652      2.74076e-9 
