# TLUSTY OSTAR2002+BSTAR2006
# teff = 47500 K (value for the effective temperature for the model. Temperatures are given in K)
# logg = 4.75 log(cm/s2) (value for Log(G) for the model.)
# z = 0.5  (Z/Z0)
#
# column 1: WAVELENGTH (ANGSTROM), Wavelength in Angstrom
# column 2: FLUX (ERG/CM2/S/A), Flux in erg/cm2/s/A
        44.8829     1.10794e-18 
        44.9078       1.139e-18 
        44.9328     1.18223e-18 
        44.9578      1.2271e-18 
        44.9827     1.27368e-18 
        45.0077     1.32202e-18 
        45.0327      1.3722e-18 
        45.0578     1.42428e-18 
        45.0828     1.47834e-18 
        45.1079     1.53444e-18 
        45.1329     1.59269e-18 
         45.158     1.65314e-18 
        45.1831     1.71588e-18 
        45.2082     1.78101e-18 
        45.2333     1.84862e-18 
        45.2585     1.91877e-18 
        45.2836      1.9916e-18 
        45.3088     2.06719e-18 
        45.3339     2.14565e-18 
        45.3592     2.22709e-18 
        45.3844     2.31162e-18 
        45.4096     2.39936e-18 
        45.4348     2.49043e-18 
        45.4601     2.58495e-18 
        45.4853     2.68307e-18 
        45.5106      2.7849e-18 
        45.5359      2.8906e-18 
        45.5612     3.00032e-18 
        45.5865     3.11419e-18 
        45.6118     3.23241e-18 
        45.6372     3.35509e-18 
        45.6626     3.48243e-18 
         45.688      3.6146e-18 
        45.7133     3.75179e-18 
        45.7388     3.89418e-18 
        45.7642     4.04199e-18 
        45.7896     4.19542e-18 
         45.815     4.35466e-18 
        45.8405     4.51994e-18 
         45.866     4.69149e-18 
        45.8915     4.86954e-18 
         45.917     5.05438e-18 
        45.9425     5.24621e-18 
         45.968     5.44534e-18 
        45.9936     5.65202e-18 
        46.0191     5.86654e-18 
        46.0447      6.0892e-18 
        46.0702     6.32033e-18 
        46.0959      6.5602e-18 
        46.1215     6.80921e-18 
        46.1471     7.06766e-18 
        46.1728      7.3359e-18 
        46.1984     7.61435e-18 
        46.2241     7.90334e-18 
        46.2498     8.20331e-18 
        46.2755     8.51469e-18 
        46.3012     8.83785e-18 
        46.3269     9.17331e-18 
        46.3527     9.52147e-18 
        46.3784     9.88287e-18 
        46.4042      1.0258e-17 
          46.43     1.06473e-17 
        46.4558     1.10515e-17 
        46.4816     1.14709e-17 
        46.5074     1.19063e-17 
        46.5333     1.23582e-17 
        46.5591     1.28272e-17 
         46.585     1.33141e-17 
        46.6109     1.38194e-17 
        46.6368     1.43457e-17 
        46.6627      1.4893e-17 
        46.6886     1.54623e-17 
        46.7146     1.60533e-17 
        46.7405     1.66669e-17 
        46.7665      1.7304e-17 
        46.7925     1.79654e-17 
        46.8185      1.8652e-17 
        46.8445      1.9365e-17 
        46.8705     2.01051e-17 
        46.8966     2.08737e-17 
        46.9226     2.16715e-17 
        46.9487     2.24999e-17 
        46.9748     2.33599e-17 
        47.0009     2.42527e-17 
        47.0271     2.51797e-17 
        47.0532     2.61422e-17 
        47.0794     2.71415e-17 
        47.1055      2.8179e-17 
        47.1317     2.92559e-17 
        47.1579     3.03742e-17 
        47.1841     3.15351e-17 
        47.2103     3.27406e-17 
        47.2366      3.3992e-17 
        47.2628     3.52913e-17 
         47.289     3.66403e-17 
        47.3154     3.80407e-17 
        47.3416     3.94949e-17 
        47.3679     4.10044e-17 
        47.3943     4.25716e-17 
        47.4206     4.41989e-17 
        47.4469     4.58883e-17 
        47.4733     4.76424e-17 
        47.4997     4.94634e-17 
        47.5261     5.13541e-17 
        47.5525     5.33169e-17 
        47.5789     5.53549e-17 
        47.6054     5.74706e-17 
        47.6318     5.96673e-17 
        47.6583     6.19481e-17 
        47.6847     6.43161e-17 
        47.7113     6.67743e-17 
        47.7378     6.93264e-17 
        47.7643     7.19766e-17 
        47.7908     7.47277e-17 
        47.8174      7.7584e-17 
         47.844     8.05493e-17 
        47.8706     8.36282e-17 
        47.8971      8.6825e-17 
        47.9238     9.01436e-17 
        47.9505     9.35889e-17 
        47.9771     9.71662e-17 
        48.0037      1.0088e-16 
        48.0304     1.04736e-16 
        48.0571      1.0874e-16 
        48.0838     1.12896e-16 
        48.1105     1.17211e-16 
        48.1372     1.21691e-16 
         48.164     1.26343e-16 
        48.1908     1.31172e-16 
        48.2175     1.36186e-16 
        48.2444     1.41391e-16 
        48.2712     1.46796e-16 
         48.298     1.52406e-16 
        48.3248     1.58232e-16 
        48.3517     1.64281e-16 
        48.3785     1.70559e-16 
        48.4054      1.7708e-16 
        48.4323     1.83847e-16 
        48.4592     1.90875e-16 
        48.4862      1.9817e-16 
        48.5131     2.05755e-16 
          48.54     2.13533e-16 
         48.567     2.21575e-16 
         48.594      2.2992e-16 
         48.621     2.38581e-16 
         48.648     2.47567e-16 
        48.6751      2.5689e-16 
        48.7022     2.66565e-16 
        48.7292     2.76606e-16 
        48.7563     2.87025e-16 
        48.7834     2.97834e-16 
        48.8105     3.09053e-16 
        48.8376     3.20694e-16 
        48.8647     3.32772e-16 
        48.8919     3.45305e-16 
         48.919     3.58311e-16 
        48.9463     3.71807e-16 
        48.9735     3.85811e-16 
        49.0007     4.00343e-16 
        49.0279      4.1542e-16 
        49.0551     4.31068e-16 
        49.0824     4.47304e-16 
        49.1097     4.64151e-16 
         49.137     4.81634e-16 
        49.1643     4.99774e-16 
        49.1916     5.18596e-16 
        49.2189     5.38131e-16 
        49.2463     5.58399e-16 
        49.2737     5.79429e-16 
         49.301     6.01254e-16 
        49.3284     6.23901e-16 
        49.3559     6.47397e-16 
        49.3833     6.71782e-16 
        49.4107     6.97085e-16 
        49.4382     7.23341e-16 
        49.4656     7.50585e-16 
        49.4932     7.78854e-16 
        49.5206      8.0819e-16 
        49.5481     8.38629e-16 
        49.5757     8.70217e-16 
        49.6032     9.02993e-16 
        49.6308     9.37003e-16 
        49.6584     9.72296e-16 
         49.686     1.00891e-15 
        49.7136     1.04692e-15 
        49.7412     1.08635e-15 
        49.7688     1.12727e-15 
        49.7965     1.16972e-15 
        49.8242     1.21378e-15 
        49.8519     1.25949e-15 
        49.8796     1.30693e-15 
        49.9073     1.35616e-15 
         49.935     1.40724e-15 
        49.9627     1.46024e-15 
        49.9906     1.51524e-15 
        50.0183     1.57231e-15 
        50.0462     1.63153e-15 
        50.0739     1.69298e-15 
        50.1018     1.75674e-15 
        50.1296     1.82291e-15 
        50.1574     1.89157e-15 
        50.1853     1.96282e-15 
        50.2132     2.03674e-15 
        50.2412     2.11346e-15 
         50.269     2.19306e-15 
         50.297     2.27566e-15 
        50.3249     2.36137e-15 
        50.3529     2.45031e-15 
        50.3809     2.54259e-15 
        50.4088     2.63836e-15 
        50.4369     2.73773e-15 
        50.4649     2.84084e-15 
         50.493     2.94785e-15 
         50.521     3.05888e-15 
        50.5491     3.17409e-15 
        50.5771     3.29315e-15 
        50.6053     3.41398e-15 
        50.6334      3.5393e-15 
        50.6616     3.66921e-15 
        50.6897     3.80389e-15 
        50.7179     3.94351e-15 
        50.7461     4.08827e-15 
        50.7742     4.23834e-15 
        50.8025      4.3939e-15 
        50.8307     4.55518e-15 
        50.8589      4.7224e-15 
        50.8872     4.89573e-15 
        50.9155     5.07544e-15 
        50.9438     5.26173e-15 
        50.9721     5.45487e-15 
        51.0004     5.65511e-15 
        51.0288     5.86267e-15 
        51.0571     6.07787e-15 
        51.0855     6.30097e-15 
        51.1139     6.53225e-15 
        51.1423     6.77202e-15 
        51.1707     7.02058e-15 
        51.1991      7.2783e-15 
        51.2276     7.54545e-15 
         51.256     7.82241e-15 
        51.2845     8.10954e-15 
        51.3131      8.4072e-15 
        51.3415     8.71582e-15 
          51.37     9.03574e-15 
        51.3987     9.36738e-15 
        51.4272     9.71122e-15 
        51.4557     1.00677e-14 
        51.4844     1.04372e-14 
        51.5129     1.08204e-14 
        51.5416     1.12175e-14 
        51.5703     1.16292e-14 
        51.5989     1.20562e-14 
        51.6276     1.24987e-14 
        51.6563     1.29574e-14 
         51.685     1.34331e-14 
        51.7137     1.39261e-14 
        51.7424     1.44373e-14 
        51.7712     1.49673e-14 
           51.8     1.55166e-14 
        51.8287     1.60862e-14 
        51.8575     1.66766e-14 
        51.8863     1.72888e-14 
        51.9152     1.79233e-14 
         51.944     1.85813e-14 
        51.9729     1.92633e-14 
        52.0018     1.99703e-14 
        52.0307     2.07034e-14 
        52.0596     2.14634e-14 
        52.0885     2.22511e-14 
        52.1175     2.30679e-14 
        52.1464     2.39147e-14 
        52.1754     2.47925e-14 
        52.2044     2.57025e-14 
        52.2334     2.66459e-14 
        52.2624      2.7624e-14 
        52.2915     2.86379e-14 
        52.3205     2.96892e-14 
        52.3496      3.0779e-14 
        52.3787     3.19087e-14 
        52.4078       3.308e-14 
        52.4369     3.42942e-14 
        52.4661     3.55529e-14 
        52.4952      3.6858e-14 
        52.5244     3.82109e-14 
        52.5536     3.96135e-14 
        52.5828     4.10675e-14 
        52.6121     4.25748e-14 
        52.6413     4.41377e-14 
        52.6705     4.57578e-14 
        52.6997     4.74375e-14 
         52.729     4.91787e-14 
        52.7583     5.09838e-14 
        52.7877     5.28552e-14 
         52.817     5.47681e-14 
        52.8463     5.67086e-14 
        52.8758     5.87207e-14 
        52.9051     6.08047e-14 
        52.9345     6.29622e-14 
         52.964     6.51962e-14 
        52.9934     6.75097e-14 
        53.0228     6.99053e-14 
        53.0523     7.23859e-14 
        53.0818     7.49544e-14 
        53.1113      7.7614e-14 
        53.1407     8.03682e-14 
        53.1703     8.32198e-14 
        53.1999     8.61729e-14 
        53.2294     8.92306e-14 
         53.259     9.23969e-14 
        53.2886     9.56757e-14 
        53.3182     9.90705e-14 
        53.3478     1.02586e-13 
        53.3775     1.06226e-13 
        53.4071     1.09996e-13 
        53.4368     1.13899e-13 
        53.4665     1.17941e-13 
        53.4963     1.22125e-13 
         53.526     1.26459e-13 
        53.5557     1.30946e-13 
        53.5855     1.35592e-13 
        53.6153     1.40404e-13 
         53.645     1.45387e-13 
        53.6749     1.50545e-13 
        53.7047     1.55887e-13 
        53.7345     1.61418e-13 
        53.7644     1.67147e-13 
        53.7942     1.73078e-13 
        53.8242     1.79219e-13 
         53.854     1.85579e-13 
        53.8839     1.92164e-13 
        53.9139     1.98983e-13 
        53.9439     2.06043e-13 
        53.9739     2.13355e-13 
        54.0038     2.20926e-13 
        54.0339     2.28765e-13 
        54.0639     2.36882e-13 
         54.094     2.45288e-13 
         54.124     2.53992e-13 
         54.154     2.63004e-13 
        54.1842     2.72337e-13 
        54.2143        2.82e-13 
        54.2444     2.92008e-13 
        54.2745     3.02369e-13 
        54.3047     3.13099e-13 
        54.3349     3.24208e-13 
        54.3651     3.35713e-13 
        54.3953     3.47626e-13 
        54.4255     3.59961e-13 
        54.4557     3.72734e-13 
         54.486      3.8596e-13 
        54.5163     3.99654e-13 
        54.5466     4.13837e-13 
        54.5769     4.28522e-13 
        54.6072     4.43727e-13 
        54.6376     4.59473e-13 
        54.6679     4.75776e-13 
        54.6984     4.92659e-13 
        54.7287     5.10141e-13 
        54.7591     5.28244e-13 
        54.7895     5.46987e-13 
          54.82     5.66397e-13 
        54.8505     5.86495e-13 
         54.881     6.07305e-13 
        54.9115     6.28856e-13 
         54.942      6.5117e-13 
        54.9725     6.74277e-13 
         55.003     6.98204e-13 
        55.0336     7.22978e-13 
        55.0642     7.48634e-13 
        55.0948     7.75196e-13 
        55.1254     8.02705e-13 
        55.1561     8.31188e-13 
        55.1867     8.60682e-13 
        55.2174     8.91222e-13 
         55.248     9.22549e-13 
        55.2788     9.54003e-13 
        55.3095     9.86539e-13 
        55.3402     1.02019e-12 
         55.371     1.05498e-12 
        55.4017     1.09096e-12 
        55.4325     1.12816e-12 
        55.4633     1.16664e-12 
        55.4941     1.20643e-12 
         55.525     1.24756e-12 
        55.5558     1.29012e-12 
        55.5867     1.33412e-12 
        55.6176     1.37961e-12 
        55.6485     1.42666e-12 
        55.6794     1.47532e-12 
        55.7104     1.52563e-12 
        55.7413     1.57766e-12 
        55.7723     1.63146e-12 
        55.8033     1.68711e-12 
        55.8343     1.74464e-12 
        55.8653     1.80414e-12 
        55.8964     1.86567e-12 
        55.9275      1.9293e-12 
        55.9586     1.99509e-12 
        55.9896     2.06314e-12 
        56.0208     2.13349e-12 
        56.0519     2.20626e-12 
         56.083     2.28149e-12 
        56.1142      2.3593e-12 
        56.1453     2.43977e-12 
        56.1766     2.52297e-12 
        56.2077     2.60902e-12 
        56.2391     2.69799e-12 
        56.2703        2.79e-12 
        56.3016     2.88515e-12 
        56.3328     2.98355e-12 
        56.3642      3.0853e-12 
        56.3954     3.19053e-12 
        56.4268     3.29932e-12 
        56.4582     3.41185e-12 
        56.4896      3.5282e-12 
        56.5209     3.64854e-12 
        56.5523     3.77296e-12 
        56.5837     3.90164e-12 
        56.6152      4.0347e-12 
        56.6467     4.17229e-12 
        56.6782     4.31459e-12 
        56.7096     4.46174e-12 
        56.7412     4.61389e-12 
        56.7726     4.77126e-12 
        56.8043     4.93397e-12 
        56.8358     5.10223e-12 
        56.8674     5.27624e-12 
         56.899     5.45617e-12 
        56.9306     5.64226e-12 
        56.9623     5.83468e-12 
        56.9939     6.03367e-12 
        57.0256     6.23944e-12 
        57.0572     6.45223e-12 
         57.089     6.67227e-12 
        57.1207     6.89982e-12 
        57.1524     7.13514e-12 
        57.1841     7.37849e-12 
         57.216     7.63009e-12 
        57.2478     7.89032e-12 
        57.2795     8.15943e-12 
        57.3114     8.43769e-12 
        57.3433     8.72544e-12 
        57.3751     9.02302e-12 
         57.407     9.33075e-12 
        57.4389     9.64896e-12 
        57.4708     9.97803e-12 
        57.5028     1.03183e-11 
        57.5347     1.06702e-11 
        57.5667     1.10341e-11 
        57.5987     1.14104e-11 
        57.6307     1.17995e-11 
        57.6627     1.22019e-11 
        57.6948     1.26181e-11 
        57.7268     1.30484e-11 
        57.7589     1.34934e-11 
         57.791     1.39536e-11 
        57.8231     1.44295e-11 
        57.8552     1.49215e-11 
        57.8874     1.54304e-11 
        57.9196     1.59519e-11 
        57.9517     1.64725e-11 
        57.9839     1.70097e-11 
        58.0162     1.75643e-11 
        58.0485     1.81371e-11 
        58.0806     1.87286e-11 
        58.1129     1.93393e-11 
        58.1453       1.997e-11 
        58.1776     2.06213e-11 
        58.2099     2.12937e-11 
        58.2422     2.19881e-11 
        58.2746     2.27051e-11 
         58.307     2.34455e-11 
        58.3393     2.42102e-11 
        58.3718     2.49997e-11 
        58.4042     2.58149e-11 
        58.4367     2.66567e-11 
        58.4692      2.7526e-11 
        58.5017     2.84237e-11 
        58.5341     2.93507e-11 
        58.5667     3.03077e-11 
        58.5992      3.1296e-11 
        58.6318     3.23166e-11 
        58.6644     3.33705e-11 
         58.697     3.44588e-11 
        58.7296     3.55824e-11 
        58.7622     3.67429e-11 
        58.7949      3.7941e-11 
        58.8276     3.91782e-11 
        58.8603     4.04559e-11 
         58.893     4.17752e-11 
        58.9256     4.31375e-11 
        58.9584     4.45442e-11 
        58.9912     4.59969e-11 
         59.024     4.74968e-11 
        59.0568     4.90456e-11 
        59.0896     5.06451e-11 
        59.1224     5.22967e-11 
        59.1553     5.40021e-11 
        59.1882     5.57629e-11 
        59.2211     5.75816e-11 
         59.254     5.94593e-11 
        59.2869     6.13983e-11 
        59.3199     6.34005e-11 
        59.3529     6.54679e-11 
        59.3858      6.7603e-11 
        59.4187     6.98076e-11 
        59.4518      7.2084e-11 
        59.4849     7.44346e-11 
        59.5179      7.6862e-11 
        59.5509     7.93687e-11 
        59.5841     8.19568e-11 
        59.6171     8.46296e-11 
        59.6503     8.73892e-11 
        59.6835      9.0239e-11 
        59.7166     9.31817e-11 
        59.7498     9.62204e-11 
         59.783     9.93584e-11 
        59.8162     1.02598e-10 
        59.8494     1.05944e-10 
        59.8827     1.09399e-10 
        59.9161     1.12967e-10 
        59.9493     1.16651e-10 
        59.9826     1.20455e-10 
         60.016     1.24382e-10 
        60.0493     1.28439e-10 
        60.0826     1.32628e-10 
        60.1161     1.36952e-10 
        60.1495     1.41418e-10 
        60.1829      1.4603e-10 
        60.2163     1.50793e-10 
        60.2499     1.55709e-10 
        60.2833     1.60787e-10 
        60.3168     1.66031e-10 
        60.3503     1.71445e-10 
        60.3838     1.77036e-10 
        60.4174     1.82809e-10 
        60.4509     1.88771e-10 
        60.4846     1.94927e-10 
        60.5182     2.01283e-10 
        60.5518     2.07847e-10 
        60.5854     2.14626e-10 
        60.6191     2.21624e-10 
        60.6528     2.28851e-10 
        60.6865     2.36315e-10 
        60.7203     2.44021e-10 
         60.754     2.51978e-10 
        60.7878     2.60195e-10 
        60.8215      2.6868e-10 
        60.8554     2.77416e-10 
        60.8891     2.86088e-10 
         60.923     2.94964e-10 
        60.9568     3.04117e-10 
        60.9907     3.13553e-10 
        61.0246     3.23282e-10 
        61.0585     3.33313e-10 
        61.0925     3.43655e-10 
        61.1264     3.54318e-10 
        61.1604     3.65312e-10 
        61.1944     3.76647e-10 
        61.2284     3.88334e-10 
        61.2624     4.00383e-10 
        61.2965     4.12806e-10 
        61.3305     4.25616e-10 
        61.3646     4.38821e-10 
        61.3987     4.52438e-10 
        61.4328     4.66477e-10 
        61.4669     4.80951e-10 
        61.5011     4.95873e-10 
        61.5353      5.1126e-10 
        61.5694     5.27125e-10 
        61.6037     5.43478e-10 
        61.6379     5.60343e-10 
        61.6721      5.7773e-10 
        61.7064     5.95656e-10 
        61.7407     6.14138e-10 
         61.775     6.33193e-10 
        61.8093     6.52841e-10 
        61.8437     6.73096e-10 
        61.8781     6.93982e-10 
        61.9124     7.15516e-10 
        61.9469     7.37717e-10 
        61.9813     7.60607e-10 
        62.0157     7.84209e-10 
        62.0502      8.0854e-10 
        62.0846     8.33629e-10 
        62.1191     8.59496e-10 
        62.1536     8.86165e-10 
        62.1882     9.13661e-10 
        62.2228     9.42009e-10 
        62.2574     9.71237e-10 
        62.2919      1.00138e-9 
        62.3265      1.03245e-9 
        62.3613      1.06448e-9 
        62.3959      1.09751e-9 
        62.4305      1.13156e-9 
        62.4652      1.16668e-9 
