# TLUSTY OSTAR2002+BSTAR2006
# teff = 47500 K (value for the effective temperature for the model. Temperatures are given in K)
# logg = 3.75 log(cm/s2) (value for Log(G) for the model.)
# z = 0.5  (Z/Z0)
#
# column 1: WAVELENGTH (ANGSTROM), Wavelength in Angstrom
# column 2: FLUX (ERG/CM2/S/A), Flux in erg/cm2/s/A
        44.8829     6.01483e-18 
        44.9078     6.18651e-18 
        44.9328     6.42557e-18 
        44.9578     6.67385e-18 
        44.9827     6.93176e-18 
        45.0077     7.19962e-18 
        45.0327     7.47784e-18 
        45.0578      7.7668e-18 
        45.0828     8.06696e-18 
        45.1079     8.37866e-18 
        45.1329     8.70245e-18 
         45.158     9.03873e-18 
        45.1831     9.38804e-18 
        45.2082     9.75081e-18 
        45.2333     1.01276e-17 
        45.2585      1.0519e-17 
        45.2836     1.09255e-17 
        45.3088     1.13477e-17 
        45.3339     1.17862e-17 
        45.3592     1.22416e-17 
        45.3844     1.27147e-17 
        45.4096      1.3206e-17 
        45.4348     1.37163e-17 
        45.4601     1.42464e-17 
        45.4853     1.47969e-17 
        45.5106     1.53687e-17 
        45.5359     1.59626e-17 
        45.5612     1.65794e-17 
        45.5865     1.72201e-17 
        45.6118     1.78856e-17 
        45.6372     1.85767e-17 
        45.6626     1.92946e-17 
         45.688     2.00402e-17 
        45.7133     2.08147e-17 
        45.7388      2.1619e-17 
        45.7642     2.24542e-17 
        45.7896      2.3322e-17 
         45.815     2.42233e-17 
        45.8405     2.51593e-17 
         45.866     2.61315e-17 
        45.8915     2.71414e-17 
         45.917     2.81901e-17 
        45.9425     2.92796e-17 
         45.968     3.04109e-17 
        45.9936     3.15862e-17 
        46.0191     3.28068e-17 
        46.0447     3.40745e-17 
        46.0702     3.53914e-17 
        46.0959     3.67589e-17 
        46.1215     3.81793e-17 
        46.1471     3.96548e-17 
        46.1728     4.11871e-17 
        46.1984     4.27788e-17 
        46.2241     4.44318e-17 
        46.2498     4.61488e-17 
        46.2755     4.79321e-17 
        46.3012     4.97843e-17 
        46.3269     5.17083e-17 
        46.3527     5.37063e-17 
        46.3784     5.57817e-17 
        46.4042     5.79374e-17 
          46.43     6.01762e-17 
        46.4558     6.25017e-17 
        46.4816     6.49169e-17 
        46.5074     6.74254e-17 
        46.5333     7.00309e-17 
        46.5591     7.27372e-17 
         46.585     7.55481e-17 
        46.6109     7.84674e-17 
        46.6368     8.14858e-17 
        46.6627     8.45547e-17 
        46.6886     8.77404e-17 
        46.7146     9.10462e-17 
        46.7405     9.44768e-17 
        46.7665     9.80366e-17 
        46.7925     1.01731e-16 
        46.8185     1.05564e-16 
        46.8445     1.09541e-16 
        46.8705     1.13668e-16 
        46.8966     1.17951e-16 
        46.9226     1.22396e-16 
        46.9487     1.27007e-16 
        46.9748     1.31793e-16 
        47.0009     1.36758e-16 
        47.0271     1.41911e-16 
        47.0532     1.47258e-16 
        47.0794     1.52806e-16 
        47.1055     1.58564e-16 
        47.1317     1.64538e-16 
        47.1579     1.70738e-16 
        47.1841     1.77172e-16 
        47.2103     1.83846e-16 
        47.2366     1.90773e-16 
        47.2628     1.97962e-16 
         47.289     2.05421e-16 
        47.3154     2.13161e-16 
        47.3416     2.21193e-16 
        47.3679     2.29527e-16 
        47.3943     2.38174e-16 
        47.4206     2.47149e-16 
        47.4469     2.56461e-16 
        47.4733     2.66123e-16 
        47.4997     2.76152e-16 
        47.5261     2.86557e-16 
        47.5525     2.97352e-16 
        47.5789     3.08556e-16 
        47.6054     3.20182e-16 
        47.6318     3.32245e-16 
        47.6583     3.44765e-16 
        47.6847     3.57756e-16 
        47.7113     3.71235e-16 
        47.7378     3.85223e-16 
        47.7643     3.99738e-16 
        47.7908     4.14799e-16 
        47.8174     4.30428e-16 
         47.844     4.46645e-16 
        47.8706     4.63474e-16 
        47.8971     4.80938e-16 
        47.9238     4.99059e-16 
        47.9505     5.17861e-16 
        47.9771     5.37373e-16 
        48.0037     5.57621e-16 
        48.0304     5.78631e-16 
        48.0571     6.00434e-16 
        48.0838     6.23057e-16 
        48.1105     6.46533e-16 
        48.1372     6.70895e-16 
         48.164     6.96172e-16 
        48.1908     7.22402e-16 
        48.2175     7.49622e-16 
        48.2444     7.77866e-16 
        48.2712     8.07175e-16 
         48.298     8.37587e-16 
        48.3248     8.69149e-16 
        48.3517     9.01895e-16 
        48.3785     9.35878e-16 
        48.4054     9.71141e-16 
        48.4323     1.00773e-15 
        48.4592      1.0457e-15 
        48.4862      1.0851e-15 
        48.5131     1.12604e-15 
          48.54     1.16762e-15 
         48.567     1.21038e-15 
         48.594     1.25471e-15 
         48.621     1.30066e-15 
         48.648     1.34829e-15 
        48.6751     1.39767e-15 
        48.7022     1.44886e-15 
        48.7292     1.50192e-15 
        48.7563     1.55692e-15 
        48.7834     1.61394e-15 
        48.8105     1.67306e-15 
        48.8376     1.73432e-15 
        48.8647     1.79784e-15 
        48.8919     1.86368e-15 
         48.919     1.93194e-15 
        48.9463     2.00269e-15 
        48.9735     2.07604e-15 
        49.0007     2.15206e-15 
        49.0279     2.23088e-15 
        49.0551     2.31259e-15 
        49.0824     2.39728e-15 
        49.1097     2.48507e-15 
         49.137     2.57607e-15 
        49.1643     2.67042e-15 
        49.1916     2.76821e-15 
        49.2189      2.8696e-15 
        49.2463     2.97471e-15 
        49.2737     3.08364e-15 
         49.301     3.19658e-15 
        49.3284     3.31364e-15 
        49.3559     3.43499e-15 
        49.3833      3.5608e-15 
        49.4107      3.6912e-15 
        49.4382     3.82638e-15 
        49.4656     3.96652e-15 
        49.4932     4.11178e-15 
        49.5206     4.26237e-15 
        49.5481     4.41847e-15 
        49.5757     4.58029e-15 
        49.6032     4.74804e-15 
        49.6308     4.92191e-15 
        49.6584     5.10218e-15 
         49.686     5.28903e-15 
        49.7136     5.48272e-15 
        49.7412     5.68353e-15 
        49.7688     5.89169e-15 
        49.7965     6.10745e-15 
        49.8242     6.33113e-15 
        49.8519     6.56297e-15 
        49.8796     6.80333e-15 
        49.9073      7.0525e-15 
         49.935     7.31078e-15 
        49.9627     7.57854e-15 
        49.9906     7.85607e-15 
        50.0183     8.14378e-15 
        50.0462     8.44203e-15 
        50.0739     8.75122e-15 
        50.1018     9.07171e-15 
        50.1296     9.40394e-15 
        50.1574     9.74836e-15 
        50.1853     1.01054e-14 
        50.2132     1.04754e-14 
        50.2412     1.08591e-14 
         50.269     1.12568e-14 
         50.297     1.16691e-14 
        50.3249     1.20964e-14 
        50.3529     1.25394e-14 
        50.3809     1.29986e-14 
        50.4088     1.34747e-14 
        50.4369     1.39682e-14 
        50.4649     1.44797e-14 
         50.493       1.501e-14 
         50.521     1.55597e-14 
        50.5491     1.61295e-14 
        50.5771     1.67171e-14 
        50.6053     1.73104e-14 
        50.6334     1.79248e-14 
        50.6616     1.85612e-14 
        50.6897       1.922e-14 
        50.7179     1.99022e-14 
        50.7461     2.06086e-14 
        50.7742     2.13402e-14 
        50.8025     2.20975e-14 
        50.8307     2.28819e-14 
        50.8589     2.36942e-14 
        50.8872     2.45352e-14 
        50.9155      2.5406e-14 
        50.9438     2.63079e-14 
        50.9721     2.72416e-14 
        51.0004     2.82086e-14 
        51.0288     2.92098e-14 
        51.0571     3.02466e-14 
        51.0855     3.13203e-14 
        51.1139     3.24319e-14 
        51.1423     3.35831e-14 
        51.1707      3.4775e-14 
        51.1991     3.60095e-14 
        51.2276     3.72877e-14 
         51.256     3.86111e-14 
        51.2845     3.99815e-14 
        51.3131     4.14007e-14 
        51.3415     4.28703e-14 
          51.37     4.43919e-14 
        51.3987     4.59676e-14 
        51.4272     4.75991e-14 
        51.4557     4.92888e-14 
        51.4844     5.10382e-14 
        51.5129     5.28499e-14 
        51.5416     5.47257e-14 
        51.5703     5.66682e-14 
        51.5989     5.86798e-14 
        51.6276     6.07625e-14 
        51.6563     6.29192e-14 
         51.685     6.51526e-14 
        51.7137     6.74652e-14 
        51.7424     6.98598e-14 
        51.7712     7.23395e-14 
           51.8      7.4907e-14 
        51.8287     7.75659e-14 
        51.8575     8.03192e-14 
        51.8863     8.31702e-14 
        51.9152     8.61223e-14 
         51.944      8.9179e-14 
        51.9729     9.23447e-14 
        52.0018     9.56223e-14 
        52.0307     9.90164e-14 
        52.0596     1.02531e-13 
        52.0885      1.0617e-13 
        52.1175     1.09939e-13 
        52.1464     1.13841e-13 
        52.1754     1.17882e-13 
        52.2044     1.22066e-13 
        52.2334     1.26399e-13 
        52.2624     1.30885e-13 
        52.2915     1.35531e-13 
        52.3205     1.40342e-13 
        52.3496     1.45324e-13 
        52.3787     1.50482e-13 
        52.4078     1.55823e-13 
        52.4369     1.61354e-13 
        52.4661      1.6708e-13 
        52.4952     1.73011e-13 
        52.5244     1.79152e-13 
        52.5536     1.85512e-13 
        52.5828     1.92096e-13 
        52.6121     1.98914e-13 
        52.6413     2.05975e-13 
        52.6705     2.13286e-13 
        52.6997     2.20857e-13 
         52.729     2.28697e-13 
        52.7583     2.36814e-13 
        52.7877     2.45219e-13 
         52.817     2.53798e-13 
        52.8463     2.62489e-13 
        52.8758      2.7149e-13 
        52.9051     2.80801e-13 
        52.9345      2.9043e-13 
         52.964     3.00388e-13 
        52.9934     3.10689e-13 
        53.0228     3.21344e-13 
        53.0523     3.32364e-13 
        53.0818     3.43762e-13 
        53.1113     3.55549e-13 
        53.1407     3.67742e-13 
        53.1703     3.80352e-13 
        53.1999     3.93395e-13 
        53.2294     4.06886e-13 
         53.259     4.20839e-13 
        53.2886     4.35271e-13 
        53.3182     4.50196e-13 
        53.3478     4.65635e-13 
        53.3775     4.81603e-13 
        53.4071     4.98118e-13 
        53.4368     5.15198e-13 
        53.4665     5.32868e-13 
        53.4963     5.51139e-13 
         53.526     5.70039e-13 
        53.5557     5.89588e-13 
        53.5855     6.09806e-13 
        53.6153     6.30717e-13 
         53.645     6.52347e-13 
        53.6749     6.74715e-13 
        53.7047     6.97853e-13 
        53.7345     7.21784e-13 
        53.7644     7.46535e-13 
        53.7942     7.72138e-13 
        53.8242     7.98614e-13 
         53.854     8.26002e-13 
        53.8839     8.54327e-13 
        53.9139     8.83625e-13 
        53.9439     9.13925e-13 
        53.9739     9.45265e-13 
        54.0038     9.77681e-13 
        54.0339     1.01121e-12 
        54.0639     1.04588e-12 
         54.094     1.08175e-12 
         54.124     1.11884e-12 
         54.154     1.15721e-12 
        54.1842     1.19689e-12 
        54.2143     1.23794e-12 
        54.2444     1.28039e-12 
        54.2745     1.32429e-12 
        54.3047     1.36971e-12 
        54.3349     1.41667e-12 
        54.3651     1.46526e-12 
        54.3953     1.51551e-12 
        54.4255     1.56748e-12 
        54.4557     1.62123e-12 
         54.486     1.67683e-12 
        54.5163     1.73432e-12 
        54.5466     1.79381e-12 
        54.5769     1.85532e-12 
        54.6072     1.91895e-12 
        54.6376     1.98475e-12 
        54.6679      2.0528e-12 
        54.6984      2.1232e-12 
        54.7287     2.19601e-12 
        54.7591     2.27132e-12 
        54.7895      2.3492e-12 
          54.82     2.42977e-12 
        54.8505     2.51308e-12 
         54.881     2.59925e-12 
        54.9115      2.6884e-12 
         54.942     2.78059e-12 
        54.9725     2.87594e-12 
         55.003     2.97456e-12 
        55.0336     3.07657e-12 
        55.0642     3.18208e-12 
        55.0948     3.29119e-12 
        55.1254     3.40405e-12 
        55.1561     3.52078e-12 
        55.1867     3.64151e-12 
        55.2174     3.76639e-12 
         55.248     3.89442e-12 
        55.2788     4.02306e-12 
        55.3095     4.15601e-12 
        55.3402     4.29334e-12 
         55.371     4.43521e-12 
        55.4017     4.58178e-12 
        55.4325     4.73316e-12 
        55.4633     4.88958e-12 
        55.4941     5.05115e-12 
         55.525     5.21804e-12 
        55.5558     5.39048e-12 
        55.5867      5.5686e-12 
        55.6176     5.75259e-12 
        55.6485      5.9427e-12 
        55.6794     6.13907e-12 
        55.7104     6.34193e-12 
        55.7413     6.55149e-12 
        55.7723     6.76797e-12 
        55.8033     6.99163e-12 
        55.8343     7.22264e-12 
        55.8653     7.46131e-12 
        55.8964     7.70786e-12 
        55.9275     7.96256e-12 
        55.9586     8.22567e-12 
        55.9896     8.49748e-12 
        56.0208     8.77825e-12 
        56.0519     9.06833e-12 
         56.083     9.36799e-12 
        56.1142     9.67754e-12 
        56.1453     9.99735e-12 
        56.1766     1.03277e-11 
        56.2077      1.0669e-11 
        56.2391     1.10215e-11 
        56.2703     1.13857e-11 
        56.3016     1.17619e-11 
        56.3328     1.21505e-11 
        56.3642     1.25521e-11 
        56.3954     1.29668e-11 
        56.4268     1.33953e-11 
        56.4582     1.38379e-11 
        56.4896     1.42952e-11 
        56.5209     1.47676e-11 
        56.5523     1.52556e-11 
        56.5837     1.57597e-11 
        56.6152     1.62805e-11 
        56.6467     1.68184e-11 
        56.6782     1.73741e-11 
        56.7096     1.79483e-11 
        56.7412     1.85413e-11 
        56.7726      1.9154e-11 
        56.8043      1.9787e-11 
        56.8358     2.04407e-11 
        56.8674     2.11162e-11 
         56.899     2.18139e-11 
        56.9306     2.25348e-11 
        56.9623     2.32794e-11 
        56.9939     2.40488e-11 
        57.0256     2.48434e-11 
        57.0572     2.56643e-11 
         57.089     2.65123e-11 
        57.1207     2.73884e-11 
        57.1524     2.82934e-11 
        57.1841     2.92284e-11 
         57.216     3.01941e-11 
        57.2478     3.11918e-11 
        57.2795     3.22226e-11 
        57.3114     3.32874e-11 
        57.3433     3.43873e-11 
        57.3751     3.55237e-11 
         57.407     3.66975e-11 
        57.4389     3.79101e-11 
        57.4708     3.91628e-11 
        57.5028     4.04569e-11 
        57.5347     4.17938e-11 
        57.5667     4.31748e-11 
        57.5987     4.46015e-11 
        57.6307     4.60752e-11 
        57.6627     4.75978e-11 
        57.6948     4.91706e-11 
        57.7268     5.07955e-11 
        57.7589     5.24738e-11 
         57.791     5.42078e-11 
        57.8231     5.59991e-11 
        57.8552     5.78495e-11 
        57.8874      5.9761e-11 
        57.9196     6.17202e-11 
        57.9517      6.3683e-11 
        57.9839      6.5707e-11 
        58.0162      6.7795e-11 
        58.0485     6.99496e-11 
        58.0806     7.21731e-11 
        58.1129     7.44667e-11 
        58.1453     7.68333e-11 
        58.1776     7.92753e-11 
        58.2099     8.17948e-11 
        58.2422     8.43945e-11 
        58.2746     8.70766e-11 
         58.307      8.9844e-11 
        58.3393     9.26996e-11 
        58.3718     9.56455e-11 
        58.4042     9.86854e-11 
        58.4367     1.01822e-10 
        58.4692     1.05058e-10 
        58.5017     1.08397e-10 
        58.5341     1.11842e-10 
        58.5667     1.15396e-10 
        58.5992     1.19064e-10 
        58.6318     1.22849e-10 
        58.6644     1.26753e-10 
         58.697     1.30781e-10 
        58.7296     1.34937e-10 
        58.7622     1.39226e-10 
        58.7949      1.4365e-10 
        58.8276     1.48216e-10 
        58.8603     1.52926e-10 
         58.893     1.57787e-10 
        58.9256     1.62801e-10 
        58.9584     1.67975e-10 
        58.9912     1.73314e-10 
         59.024     1.78822e-10 
        59.0568     1.84505e-10 
        59.0896      1.9037e-10 
        59.1224     1.96421e-10 
        59.1553     2.02663e-10 
        59.1882     2.09104e-10 
        59.2211      2.1575e-10 
         59.254     2.22606e-10 
        59.2869     2.29681e-10 
        59.3199      2.3698e-10 
        59.3529     2.44512e-10 
        59.3858     2.52283e-10 
        59.4187     2.60302e-10 
        59.4518     2.68574e-10 
        59.4849      2.7711e-10 
        59.5179     2.85917e-10 
        59.5509     2.95004e-10 
        59.5841      3.0438e-10 
        59.6171     3.14054e-10 
        59.6503     3.24035e-10 
        59.6835     3.34332e-10 
        59.7166     3.44959e-10 
        59.7498     3.55921e-10 
         59.783     3.67235e-10 
        59.8162     3.78905e-10 
        59.8494     3.90948e-10 
        59.8827     4.03373e-10 
        59.9161     4.16192e-10 
        59.9493      4.2942e-10 
        59.9826     4.43068e-10 
         60.016     4.57149e-10 
        60.0493     4.71678e-10 
        60.0826      4.8667e-10 
        60.1161     5.02135e-10 
        60.1495     5.18093e-10 
        60.1829     5.34561e-10 
        60.2163      5.5155e-10 
        60.2499     5.69078e-10 
        60.2833     5.87166e-10 
        60.3168     6.05826e-10 
        60.3503     6.25082e-10 
        60.3838     6.44947e-10 
        60.4174     6.65444e-10 
        60.4509     6.86594e-10 
        60.4846     7.08414e-10 
        60.5182      7.3093e-10 
        60.5518      7.5416e-10 
        60.5854     7.78129e-10 
        60.6191     8.02859e-10 
        60.6528     8.28374e-10 
        60.6865     8.54702e-10 
        60.7203     8.81865e-10 
         60.754     9.09892e-10 
        60.7878      9.3881e-10 
        60.8215     9.68647e-10 
        60.8554     9.99362e-10 
        60.8891      1.02998e-9 
         60.923      1.06136e-9 
        60.9568       1.0937e-9 
        60.9907      1.12701e-9 
        61.0246      1.16135e-9 
        61.0585      1.19672e-9 
        61.0925      1.23317e-9 
        61.1264      1.27074e-9 
        61.1604      1.30945e-9 
        61.1944      1.34934e-9 
        61.2284      1.39045e-9 
        61.2624       1.4328e-9 
        61.2965      1.47645e-9 
        61.3305      1.52142e-9 
        61.3646      1.56777e-9 
        61.3987      1.61553e-9 
        61.4328      1.66475e-9 
        61.4669      1.71546e-9 
        61.5011      1.76772e-9 
        61.5353      1.82156e-9 
        61.5694      1.87706e-9 
        61.6037      1.93423e-9 
        61.6379      1.99315e-9 
        61.6721      2.05387e-9 
        61.7064      2.11644e-9 
        61.7407       2.1809e-9 
         61.775      2.24734e-9 
        61.8093      2.31581e-9 
        61.8437      2.38635e-9 
        61.8781      2.45904e-9 
        61.9124      2.53395e-9 
        61.9469      2.61114e-9 
        61.9813      2.69068e-9 
        62.0157      2.77265e-9 
        62.0502       2.8571e-9 
        62.0846      2.94414e-9 
        62.1191      3.03383e-9 
        62.1536      3.12625e-9 
        62.1882      3.22148e-9 
        62.2228      3.31961e-9 
        62.2574      3.42073e-9 
        62.2919      3.52494e-9 
        62.3265      3.63232e-9 
        62.3613      3.74296e-9 
        62.3959      3.85698e-9 
        62.4305      3.97448e-9 
        62.4652      4.09555e-9 
