# TLUSTY OSTAR2002+BSTAR2006
# teff = 55000 K (value for the effective temperature for the model. Temperatures are given in K)
# logg = 4 log(cm/s2) (value for Log(G) for the model.)
# z = 0.5  (Z/Z0)
#
# column 1: WAVELENGTH (ANGSTROM), Wavelength in Angstrom
# column 2: FLUX (ERG/CM2/S/A), Flux in erg/cm2/s/A
        44.8829     1.58699e-13 
        44.9078     1.62563e-13 
        44.9328     1.67928e-13 
        44.9578     1.73469e-13 
        44.9827     1.79193e-13 
        45.0077     1.85106e-13 
        45.0327     1.91214e-13 
        45.0578     1.97524e-13 
        45.0828     2.04043e-13 
        45.1079     2.10776e-13 
        45.1329      2.1773e-13 
         45.158     2.24915e-13 
        45.1831     2.32337e-13 
        45.2082     2.40003e-13 
        45.2333     2.47923e-13 
        45.2585     2.56104e-13 
        45.2836     2.64556e-13 
        45.3088     2.73285e-13 
        45.3339     2.82303e-13 
        45.3592     2.91618e-13 
        45.3844     3.01241e-13 
        45.4096     3.11181e-13 
        45.4348      3.2145e-13 
        45.4601     3.32058e-13 
        45.4853     3.43015e-13 
        45.5106     3.54333e-13 
        45.5359     3.66026e-13 
        45.5612     3.78103e-13 
        45.5865     3.90582e-13 
        45.6118     4.03471e-13 
        45.6372     4.16784e-13 
        45.6626     4.30537e-13 
         45.688     4.44744e-13 
        45.7133     4.59419e-13 
        45.7388     4.74579e-13 
        45.7642     4.90239e-13 
        45.7896     5.06417e-13 
         45.815     5.23127e-13 
        45.8405      5.4039e-13 
         45.866     5.58222e-13 
        45.8915     5.76642e-13 
         45.917     5.95669e-13 
        45.9425     6.15326e-13 
         45.968     6.35629e-13 
        45.9936     6.56604e-13 
        46.0191     6.78272e-13 
        46.0447     7.00654e-13 
        46.0702     7.23775e-13 
        46.0959     7.47657e-13 
        46.1215     7.72328e-13 
        46.1471     7.97814e-13 
        46.1728     8.24141e-13 
        46.1984     8.51337e-13 
        46.2241     8.79427e-13 
        46.2498     9.08448e-13 
        46.2755     9.38425e-13 
        46.3012     9.69392e-13 
        46.3269     1.00138e-12 
        46.3527     1.03442e-12 
        46.3784     1.06856e-12 
        46.4042     1.10382e-12 
          46.43     1.14024e-12 
        46.4558     1.17787e-12 
        46.4816     1.21674e-12 
        46.5074     1.25689e-12 
        46.5333     1.29836e-12 
        46.5591      1.3412e-12 
         46.585     1.38547e-12 
        46.6109     1.43118e-12 
        46.6368     1.47819e-12 
        46.6627     1.52576e-12 
        46.6886     1.57488e-12 
        46.7146     1.62558e-12 
        46.7405     1.67791e-12 
        46.7665     1.73193e-12 
        46.7925     1.78768e-12 
        46.8185     1.84523e-12 
        46.8445     1.90464e-12 
        46.8705     1.96596e-12 
        46.8966     2.02925e-12 
        46.9226     2.09458e-12 
        46.9487       2.162e-12 
        46.9748      2.2316e-12 
        47.0009     2.30344e-12 
        47.0271      2.3776e-12 
        47.0532     2.45414e-12 
        47.0794     2.53315e-12 
        47.1055     2.61469e-12 
        47.1317     2.69886e-12 
        47.1579     2.78576e-12 
        47.1841     2.87543e-12 
        47.2103       2.968e-12 
        47.2366     3.06354e-12 
        47.2628     3.16218e-12 
         47.289     3.26398e-12 
        47.3154     3.36904e-12 
        47.3416      3.4775e-12 
        47.3679     3.58946e-12 
        47.3943     3.70502e-12 
        47.4206     3.82429e-12 
        47.4469      3.9474e-12 
        47.4733     4.07449e-12 
        47.4997     4.20564e-12 
        47.5261     4.34105e-12 
        47.5525     4.48078e-12 
        47.5789     4.62503e-12 
        47.6054     4.77393e-12 
        47.6318     4.92761e-12 
        47.6583     5.08626e-12 
        47.6847     5.25001e-12 
        47.7113     5.41899e-12 
        47.7378     5.59345e-12 
        47.7643     5.77353e-12 
        47.7908     5.95939e-12 
        47.8174     6.15125e-12 
         47.844     6.34926e-12 
        47.8706     6.55367e-12 
        47.8971     6.76467e-12 
        47.9238     6.98243e-12 
        47.9505      7.2072e-12 
        47.9771     7.43922e-12 
        48.0037     7.67872e-12 
        48.0304     7.92591e-12 
        48.0571     8.18109e-12 
        48.0838     8.44445e-12 
        48.1105      8.7163e-12 
        48.1372     8.99691e-12 
         48.164     9.28654e-12 
        48.1908     9.58549e-12 
        48.2175      9.8941e-12 
        48.2444     1.02126e-11 
        48.2712     1.05414e-11 
         48.298     1.08807e-11 
        48.3248      1.1231e-11 
        48.3517     1.15926e-11 
        48.3785     1.19658e-11 
        48.4054      1.2351e-11 
        48.4323     1.27486e-11 
        48.4592      1.3159e-11 
        48.4862     1.35826e-11 
        48.5131     1.40203e-11 
          48.54     1.44629e-11 
         48.567     1.49157e-11 
         48.594     1.53827e-11 
         48.621     1.58642e-11 
         48.648      1.6361e-11 
        48.6751      1.6873e-11 
        48.7022     1.74013e-11 
        48.7292      1.7946e-11 
        48.7563     1.85079e-11 
        48.7834     1.90873e-11 
        48.8105     1.96848e-11 
        48.8376     2.03011e-11 
        48.8647     2.09368e-11 
        48.8919     2.15922e-11 
         48.919     2.22681e-11 
        48.9463     2.29653e-11 
        48.9735     2.36842e-11 
        49.0007     2.44258e-11 
        49.0279     2.51904e-11 
        49.0551     2.59791e-11 
        49.0824     2.67923e-11 
        49.1097      2.7631e-11 
         49.137     2.84961e-11 
        49.1643     2.93883e-11 
        49.1916     3.03082e-11 
        49.2189     3.12572e-11 
        49.2463     3.22358e-11 
        49.2737     3.32448e-11 
         49.301     3.42856e-11 
        49.3284      3.5359e-11 
        49.3559      3.6466e-11 
        49.3833     3.76076e-11 
        49.4107      3.8785e-11 
        49.4382     3.99992e-11 
        49.4656     4.12513e-11 
        49.4932     4.25427e-11 
        49.5206     4.38748e-11 
        49.5481     4.52483e-11 
        49.5757     4.66648e-11 
        49.6032     4.81257e-11 
        49.6308     4.96324e-11 
        49.6584     5.11862e-11 
         49.686     5.27886e-11 
        49.7136     5.44413e-11 
        49.7412     5.61455e-11 
        49.7688     5.79034e-11 
        49.7965     5.97161e-11 
        49.8242     6.15857e-11 
        49.8519     6.35136e-11 
        49.8796     6.55019e-11 
        49.9073     6.75528e-11 
         49.935     6.96675e-11 
        49.9627     7.18487e-11 
        49.9906     7.40978e-11 
        50.0183     7.64176e-11 
        50.0462     7.88099e-11 
        50.0739     8.12774e-11 
        50.1018     8.38216e-11 
        50.1296      8.6446e-11 
        50.1574     8.91523e-11 
        50.1853     9.19433e-11 
        50.2132     9.48217e-11 
        50.2412       9.779e-11 
         50.269     1.00852e-10 
         50.297     1.04009e-10 
        50.3249     1.07265e-10 
        50.3529     1.10623e-10 
        50.3809     1.14086e-10 
        50.4088     1.17658e-10 
        50.4369     1.21341e-10 
        50.4649      1.2514e-10 
         50.493     1.29058e-10 
         50.521     1.33099e-10 
        50.5491     1.37265e-10 
        50.5771     1.41539e-10 
        50.6053     1.45837e-10 
        50.6334     1.50265e-10 
        50.6616     1.54827e-10 
        50.6897     1.59529e-10 
        50.7179     1.64372e-10 
        50.7461     1.69364e-10 
        50.7742     1.74506e-10 
        50.8025     1.79805e-10 
        50.8307     1.85264e-10 
        50.8589      1.9089e-10 
        50.8872     1.96686e-10 
        50.9155     2.02658e-10 
        50.9438     2.08812e-10 
        50.9721     2.15151e-10 
        51.0004     2.21684e-10 
        51.0288     2.28415e-10 
        51.0571     2.35351e-10 
        51.0855     2.42497e-10 
        51.1139      2.4986e-10 
        51.1423     2.57447e-10 
        51.1707     2.65262e-10 
        51.1991     2.73318e-10 
        51.2276     2.81616e-10 
         51.256     2.90167e-10 
        51.2845     2.98977e-10 
        51.3131     3.08055e-10 
        51.3415      3.1741e-10 
          51.37     3.27048e-10 
        51.3987     3.36977e-10 
        51.4272     3.47209e-10 
        51.4557     3.57752e-10 
        51.4844     3.68613e-10 
        51.5129     3.79806e-10 
        51.5416     3.91337e-10 
        51.5703     4.03219e-10 
        51.5989     4.15464e-10 
        51.6276     4.28079e-10 
        51.6563     4.41076e-10 
         51.685     4.54469e-10 
        51.7137     4.68269e-10 
        51.7424     4.82487e-10 
        51.7712     4.97137e-10 
           51.8      5.1223e-10 
        51.8287     5.27783e-10 
        51.8575      5.4381e-10 
        51.8863     5.60321e-10 
        51.9152     5.77335e-10 
         51.944     5.94864e-10 
        51.9729     6.12927e-10 
        52.0018     6.31537e-10 
        52.0307     6.50712e-10 
        52.0596      6.7047e-10 
        52.0885     6.90828e-10 
        52.1175     7.11802e-10 
        52.1464     7.33416e-10 
        52.1754     7.55686e-10 
        52.2044     7.78631e-10 
        52.2334     8.02273e-10 
        52.2624     8.26632e-10 
        52.2915      8.5173e-10 
        52.3205     8.77593e-10 
        52.3496     9.04241e-10 
        52.3787     9.31697e-10 
        52.4078     9.59986e-10 
        52.4369     9.89133e-10 
        52.4661      1.01916e-9 
        52.4952      1.05011e-9 
        52.5244        1.082e-9 
        52.5536      1.11485e-9 
        52.5828       1.1487e-9 
        52.6121      1.18358e-9 
        52.6413      1.21952e-9 
        52.6705      1.25655e-9 
        52.6997       1.2947e-9 
         52.729      1.33401e-9 
        52.7583      1.37452e-9 
        52.7877      1.41625e-9 
         52.817      1.45865e-9 
        52.8463      1.50145e-9 
        52.8758      1.54555e-9 
        52.9051      1.59097e-9 
        52.9345      1.63769e-9 
         52.964       1.6858e-9 
        52.9934      1.73533e-9 
        53.0228       1.7863e-9 
        53.0523      1.83878e-9 
        53.0818       1.8928e-9 
        53.1113      1.94839e-9 
        53.1407      2.00564e-9 
        53.1703      2.06455e-9 
        53.1999       2.1252e-9 
        53.2294      2.18763e-9 
         53.259      2.25189e-9 
        53.2886      2.31805e-9 
        53.3182      2.38614e-9 
        53.3478      2.45625e-9 
        53.3775       2.5284e-9 
        53.4071      2.60267e-9 
        53.4368      2.67912e-9 
        53.4665      2.75783e-9 
        53.4963      2.83884e-9 
         53.526      2.92224e-9 
        53.5557      3.00809e-9 
        53.5855      3.09644e-9 
        53.6153       3.1874e-9 
         53.645      3.28104e-9 
        53.6749      3.37743e-9 
        53.7047      3.47665e-9 
        53.7345      3.57877e-9 
        53.7644       3.6839e-9 
        53.7942      3.79213e-9 
        53.8242      3.90352e-9 
         53.854       4.0182e-9 
        53.8839      4.13624e-9 
        53.9139      4.25775e-9 
        53.9439      4.38282e-9 
        53.9739      4.51156e-9 
        54.0038      4.64411e-9 
        54.0339      4.78053e-9 
        54.0639      4.92096e-9 
         54.094      5.06552e-9 
         54.124      5.21432e-9 
         54.154      5.36751e-9 
        54.1842      5.52518e-9 
        54.2143       5.6875e-9 
        54.2444      5.85458e-9 
        54.2745      6.02656e-9 
        54.3047      6.20359e-9 
        54.3349      6.38582e-9 
        54.3651      6.57341e-9 
        54.3953      6.76653e-9 
        54.4255       6.9653e-9 
        54.4557      7.16992e-9 
         54.486      7.38053e-9 
        54.5163      7.59733e-9 
        54.5466      7.82053e-9 
        54.5769      8.05028e-9 
        54.6072      8.28676e-9 
        54.6376      8.53019e-9 
        54.6679      8.78078e-9 
        54.6984       9.0387e-9 
        54.7287      9.30424e-9 
        54.7591      9.57758e-9 
        54.7895      9.85893e-9 
          54.82      1.01485e-8 
        54.8505      1.04467e-8 
         54.881      1.07535e-8 
        54.9115      1.10694e-8 
         54.942      1.13946e-8 
        54.9725      1.17294e-8 
         55.003      1.20739e-8 
        55.0336      1.24286e-8 
        55.0642      1.27937e-8 
        55.0948      1.31695e-8 
        55.1254      1.35564e-8 
        55.1561      1.39546e-8 
        55.1867      1.43645e-8 
        55.2174      1.47866e-8 
         55.248      1.52173e-8 
        55.2788       1.5649e-8 
        55.3095      1.60931e-8 
        55.3402      1.65497e-8 
         55.371      1.70193e-8 
        55.4017      1.75023e-8 
        55.4325      1.79989e-8 
        55.4633      1.85097e-8 
        55.4941      1.90348e-8 
         55.525      1.95749e-8 
        55.5558      2.01304e-8 
        55.5867      2.07016e-8 
        55.6176       2.1289e-8 
        55.6485      2.18931e-8 
        55.6794      2.25143e-8 
        55.7104      2.31531e-8 
        55.7413        2.381e-8 
        55.7723      2.44857e-8 
        55.8033      2.51805e-8 
        55.8343       2.5895e-8 
        55.8653      2.66297e-8 
        55.8964      2.73854e-8 
        55.9275      2.81624e-8 
        55.9586      2.89615e-8 
        55.9896      2.97833e-8 
        56.0208      3.06284e-8 
        56.0519      3.14974e-8 
         56.083      3.23912e-8 
        56.1142      3.33103e-8 
        56.1453      3.42556e-8 
        56.1766      3.52275e-8 
        56.2077      3.62272e-8 
        56.2391       3.7255e-8 
        56.2703      3.83121e-8 
        56.3016      3.93992e-8 
        56.3328      4.05173e-8 
        56.3642      4.16668e-8 
        56.3954      4.28492e-8 
        56.4268      4.40649e-8 
        56.4582      4.53153e-8 
        56.4896      4.66011e-8 
        56.5209      4.79236e-8 
        56.5523      4.92834e-8 
        56.5837      5.06819e-8 
        56.6152      5.21198e-8 
        56.6467      5.35987e-8 
        56.6782      5.51196e-8 
        56.7096      5.66838e-8 
        56.7412       5.8292e-8 
        56.7726      5.99462e-8 
        56.8043       6.1647e-8 
        56.8358      6.33962e-8 
        56.8674      6.51951e-8 
         56.899       6.7045e-8 
        56.9306      6.89475e-8 
        56.9623      7.09038e-8 
        56.9939      7.29158e-8 
        57.0256      7.49848e-8 
        57.0572      7.71124e-8 
         57.089      7.93004e-8 
        57.1207      8.15505e-8 
        57.1524      8.38647e-8 
        57.1841      8.62444e-8 
         57.216      8.86914e-8 
        57.2478       9.1208e-8 
        57.2795      9.37963e-8 
        57.3114      9.64577e-8 
        57.3433      9.91945e-8 
        57.3751      1.02009e-7 
         57.407      1.04904e-7 
        57.4389       1.0788e-7 
        57.4708      1.10942e-7 
        57.5028       1.1409e-7 
        57.5347      1.17327e-7 
        57.5667      1.20655e-7 
        57.5987      1.24079e-7 
        57.6307      1.27601e-7 
        57.6627       1.3122e-7 
        57.6948      1.34944e-7 
        57.7268      1.38774e-7 
        57.7589      1.42711e-7 
         57.791      1.46761e-7 
        57.8231      1.50925e-7 
        57.8552      1.55208e-7 
        57.8874      1.59612e-7 
        57.9196      1.64108e-7 
        57.9517      1.68611e-7 
        57.9839      1.73234e-7 
        58.0162      1.77983e-7 
        58.0485      1.82863e-7 
        58.0806      1.87877e-7 
        58.1129      1.93028e-7 
        58.1453      1.98321e-7 
        58.1776      2.03758e-7 
        58.2099      2.09346e-7 
        58.2422      2.15085e-7 
        58.2746      2.20983e-7 
         58.307      2.27042e-7 
        58.3393      2.33267e-7 
        58.3718      2.39662e-7 
        58.4042      2.46234e-7 
        58.4367      2.52986e-7 
        58.4692      2.59921e-7 
        58.5017      2.67047e-7 
        58.5341       2.7437e-7 
        58.5667      2.81893e-7 
        58.5992      2.89622e-7 
        58.6318      2.97563e-7 
        58.6644      3.05722e-7 
         58.697      3.14103e-7 
        58.7296      3.22716e-7 
        58.7622      3.31564e-7 
        58.7949      3.40655e-7 
        58.8276      3.49995e-7 
        58.8603      3.59592e-7 
         58.893       3.6945e-7 
        58.9256      3.79581e-7 
        58.9584      3.89988e-7 
        58.9912      4.00682e-7 
         59.024      4.11667e-7 
        59.0568      4.22954e-7 
        59.0896       4.3455e-7 
        59.1224      4.46467e-7 
        59.1553      4.58707e-7 
        59.1882      4.71283e-7 
        59.2211      4.84206e-7 
         59.254      4.97482e-7 
        59.2869      5.11122e-7 
        59.3199      5.25136e-7 
        59.3529      5.39534e-7 
        59.3858      5.54328e-7 
        59.4187      5.69527e-7 
        59.4518      5.85141e-7 
        59.4849      6.01184e-7 
        59.5179      6.17668e-7 
        59.5509      6.34605e-7 
        59.5841      6.52004e-7 
        59.6171      6.69882e-7 
        59.6503      6.88247e-7 
        59.6835      7.07118e-7 
        59.7166      7.26506e-7 
        59.7498      7.46425e-7 
         59.783      7.66893e-7 
        59.8162      7.87919e-7 
        59.8494      8.09523e-7 
        59.8827      8.31719e-7 
        59.9161       8.5452e-7 
        59.9493      8.77953e-7 
        59.9826      9.02024e-7 
         60.016      9.26754e-7 
        60.0493      9.52167e-7 
        60.0826      9.78274e-7 
        60.1161      1.00509e-6 
        60.1495      1.03265e-6 
        60.1829      1.06097e-6 
        60.2163      1.09005e-6 
        60.2499      1.11994e-6 
        60.2833      1.15065e-6 
        60.3168       1.1822e-6 
        60.3503      1.21462e-6 
        60.3838      1.24791e-6 
        60.4174      1.28213e-6 
        60.4509      1.31729e-6 
        60.4846       1.3534e-6 
        60.5182      1.39051e-6 
        60.5518      1.42864e-6 
        60.5854      1.46781e-6 
        60.6191      1.50805e-6 
        60.6528       1.5494e-6 
        60.6865      1.59189e-6 
        60.7203      1.63552e-6 
         60.754      1.68037e-6 
        60.7878      1.72644e-6 
        60.8215      1.77378e-6 
        60.8554       1.8223e-6 
        60.8891       1.8706e-6 
         60.923      1.91988e-6 
        60.9568      1.97047e-6 
        60.9907      2.02239e-6 
        61.0246      2.07568e-6 
        61.0585      2.13036e-6 
        61.0925      2.18649e-6 
        61.1264      2.24411e-6 
        61.1604      2.30323e-6 
        61.1944      2.36392e-6 
        61.2284       2.4262e-6 
        61.2624      2.49013e-6 
        61.2965      2.55575e-6 
        61.3305      2.62309e-6 
        61.3646       2.6922e-6 
        61.3987      2.76313e-6 
        61.4328      2.83594e-6 
        61.4669      2.91067e-6 
        61.5011      2.98735e-6 
        61.5353      3.06606e-6 
        61.5694      3.14686e-6 
        61.6037      3.22976e-6 
        61.6379      3.31487e-6 
        61.6721      3.40221e-6 
        61.7064      3.49185e-6 
        61.7407      3.58385e-6 
         61.775      3.67828e-6 
        61.8093       3.7752e-6 
        61.8437      3.87466e-6 
        61.8781      3.97676e-6 
        61.9124      4.08154e-6 
        61.9469      4.18908e-6 
        61.9813      4.29945e-6 
        62.0157      4.41275e-6 
        62.0502      4.52901e-6 
        62.0846      4.64835e-6 
        62.1191      4.77083e-6 
        62.1536      4.89653e-6 
        62.1882      5.02554e-6 
        62.2228      5.15795e-6 
        62.2574      5.29385e-6 
        62.2919      5.43334e-6 
        62.3265      5.57651e-6 
        62.3613      5.72342e-6 
        62.3959      5.87422e-6 
        62.4305      6.02902e-6 
        62.4652      6.18787e-6 
