# TLUSTY OSTAR2002+BSTAR2006
# teff = 55000 K (value for the effective temperature for the model. Temperatures are given in K)
# logg = 4.75 log(cm/s2) (value for Log(G) for the model.)
# z = 0.5  (Z/Z0)
#
# column 1: WAVELENGTH (ANGSTROM), Wavelength in Angstrom
# column 2: FLUX (ERG/CM2/S/A), Flux in erg/cm2/s/A
        44.8829     5.72152e-13 
        44.9078     5.83745e-13 
        44.9328     5.99794e-13 
        44.9578     6.16285e-13 
        44.9827     6.33231e-13 
        45.0077     6.50642e-13 
        45.0327     6.68531e-13 
        45.0578     6.86912e-13 
        45.0828       7.058e-13 
        45.1079     7.25206e-13 
        45.1329     7.45146e-13 
         45.158     7.65634e-13 
        45.1831     7.86688e-13 
        45.2082     8.08316e-13 
        45.2333     8.30541e-13 
        45.2585     8.53378e-13 
        45.2836     8.76843e-13 
        45.3088     9.00951e-13 
        45.3339     9.25723e-13 
        45.3592     9.51175e-13 
        45.3844     9.77328e-13 
        45.4096      1.0042e-12 
        45.4348     1.03181e-12 
        45.4601     1.06018e-12 
        45.4853     1.08933e-12 
        45.5106     1.11928e-12 
        45.5359     1.15006e-12 
        45.5612     1.18168e-12 
        45.5865     1.21417e-12 
        45.6118     1.24756e-12 
        45.6372     1.28186e-12 
        45.6626      1.3171e-12 
         45.688     1.35332e-12 
        45.7133     1.39053e-12 
        45.7388     1.42876e-12 
        45.7642     1.46804e-12 
        45.7896     1.50841e-12 
         45.815     1.54988e-12 
        45.8405      1.5925e-12 
         45.866     1.63628e-12 
        45.8915     1.68127e-12 
         45.917      1.7275e-12 
        45.9425       1.775e-12 
         45.968      1.8238e-12 
        45.9936     1.87396e-12 
        46.0191     1.92547e-12 
        46.0447     1.97842e-12 
        46.0702     2.03281e-12 
        46.0959     2.08871e-12 
        46.1215     2.14614e-12 
        46.1471     2.20514e-12 
        46.1728     2.26578e-12 
        46.1984     2.32808e-12 
        46.2241     2.39209e-12 
        46.2498     2.45786e-12 
        46.2755     2.52545e-12 
        46.3012     2.59488e-12 
        46.3269     2.66624e-12 
        46.3527     2.73953e-12 
        46.3784     2.81487e-12 
        46.4042     2.89225e-12 
          46.43     2.97179e-12 
        46.4558      3.0535e-12 
        46.4816     3.13745e-12 
        46.5074     3.22372e-12 
        46.5333     3.31235e-12 
        46.5591     3.40342e-12 
         46.585     3.49702e-12 
        46.6109     3.59316e-12 
        46.6368     3.69289e-12 
        46.6627     3.79752e-12 
        46.6886     3.90541e-12 
        46.7146     4.01635e-12 
        46.7405     4.13045e-12 
        46.7665     4.24779e-12 
        46.7925     4.36847e-12 
        46.8185     4.49257e-12 
        46.8445     4.62019e-12 
        46.8705     4.75145e-12 
        46.8966     4.88644e-12 
        46.9226     5.02525e-12 
        46.9487     5.16801e-12 
        46.9748     5.31482e-12 
        47.0009     5.46582e-12 
        47.0271     5.62109e-12 
        47.0532     5.78077e-12 
        47.0794       5.945e-12 
        47.1055      6.1139e-12 
        47.1317     6.28758e-12 
        47.1579     6.46621e-12 
        47.1841     6.64991e-12 
        47.2103     6.83882e-12 
        47.2366      7.0331e-12 
        47.2628     7.23291e-12 
         47.289     7.43839e-12 
        47.3154     7.64968e-12 
        47.3416     7.86702e-12 
        47.3679     8.09051e-12 
        47.3943     8.32034e-12 
        47.4206     8.55673e-12 
        47.4469     8.79982e-12 
        47.4733      9.0498e-12 
        47.4997     9.30688e-12 
        47.5261      9.5713e-12 
        47.5525     9.84319e-12 
        47.5789     1.01228e-11 
        47.6054     1.04104e-11 
        47.6318     1.07061e-11 
        47.6583     1.10103e-11 
        47.6847     1.13231e-11 
        47.7113     1.16448e-11 
        47.7378     1.19756e-11 
        47.7643     1.23158e-11 
        47.7908     1.26657e-11 
        47.8174     1.30255e-11 
         47.844     1.33955e-11 
        47.8706     1.37761e-11 
        47.8971     1.41675e-11 
        47.9238     1.45699e-11 
        47.9505     1.49838e-11 
        47.9771     1.54095e-11 
        48.0037     1.58473e-11 
        48.0304     1.62975e-11 
        48.0571     1.67604e-11 
        48.0838     1.72366e-11 
        48.1105     1.77263e-11 
        48.1372     1.82298e-11 
         48.164     1.87478e-11 
        48.1908     1.92804e-11 
        48.2175     1.98281e-11 
        48.2444     2.03913e-11 
        48.2712     2.09706e-11 
         48.298     2.15664e-11 
        48.3248      2.2179e-11 
        48.3517     2.28091e-11 
        48.3785     2.34571e-11 
        48.4054     2.41236e-11 
        48.4323     2.48089e-11 
        48.4592     2.55137e-11 
        48.4862     2.62385e-11 
        48.5131     2.69849e-11 
          48.54      2.7758e-11 
         48.567      2.8558e-11 
         48.594     2.93811e-11 
         48.621     3.02279e-11 
         48.648     3.10992e-11 
        48.6751     3.19956e-11 
        48.7022     3.29176e-11 
        48.7292     3.38665e-11 
        48.7563     3.48427e-11 
        48.7834     3.58469e-11 
        48.8105     3.68801e-11 
        48.8376     3.79431e-11 
        48.8647     3.90367e-11 
        48.8919     4.01619e-11 
         48.919     4.13195e-11 
        48.9463     4.25103e-11 
        48.9735     4.37355e-11 
        49.0007     4.49962e-11 
        49.0279     4.62931e-11 
        49.0551     4.76274e-11 
        49.0824         4.9e-11 
        49.1097     5.04124e-11 
         49.137     5.18654e-11 
        49.1643     5.33603e-11 
        49.1916     5.48981e-11 
        49.2189     5.64806e-11 
        49.2463     5.81086e-11 
        49.2737     5.97832e-11 
         49.301     6.15066e-11 
        49.3284     6.32792e-11 
        49.3559      6.5103e-11 
        49.3833     6.69796e-11 
        49.4107     6.89101e-11 
        49.4382     7.08963e-11 
        49.4656     7.29396e-11 
        49.4932     7.50419e-11 
        49.5206     7.72048e-11 
        49.5481     7.94301e-11 
        49.5757     8.17195e-11 
        49.6032     8.40749e-11 
        49.6308     8.64981e-11 
        49.6584     8.89913e-11 
         49.686      9.1556e-11 
        49.7136      9.4195e-11 
        49.7412     9.69098e-11 
        49.7688     9.97033e-11 
        49.7965     1.02577e-10 
        49.8242     1.05533e-10 
        49.8519     1.08575e-10 
        49.8796     1.11704e-10 
        49.9073     1.14924e-10 
         49.935     1.18237e-10 
        49.9627     1.21645e-10 
        49.9906      1.2515e-10 
        50.0183     1.28758e-10 
        50.0462     1.32469e-10 
        50.0739     1.36287e-10 
        50.1018     1.40215e-10 
        50.1296     1.44257e-10 
        50.1574     1.48414e-10 
        50.1853     1.52693e-10 
        50.2132     1.57094e-10 
        50.2412      1.6162e-10 
         50.269     1.66279e-10 
         50.297     1.71073e-10 
        50.3249     1.76003e-10 
        50.3529     1.81076e-10 
        50.3809     1.86294e-10 
        50.4088     1.91665e-10 
        50.4369     1.97188e-10 
        50.4649     2.02872e-10 
         50.493     2.08718e-10 
         50.521     2.14735e-10 
        50.5491     2.20924e-10 
        50.5771     2.27298e-10 
        50.6053     2.33834e-10 
        50.6334     2.40567e-10 
        50.6616     2.47494e-10 
        50.6897     2.54619e-10 
        50.7179      2.6195e-10 
        50.7461     2.69492e-10 
        50.7742     2.77252e-10 
        50.8025     2.85234e-10 
        50.8307     2.93447e-10 
        50.8589     3.01896e-10 
        50.8872     3.10588e-10 
        50.9155     3.19531e-10 
        50.9438      3.2873e-10 
        50.9721     3.38194e-10 
        51.0004     3.47932e-10 
        51.0288     3.57949e-10 
        51.0571     3.68256e-10 
        51.0855     3.78859e-10 
        51.1139     3.89768e-10 
        51.1423     4.00988e-10 
        51.1707     4.12533e-10 
        51.1991     4.24412e-10 
        51.2276     4.36632e-10 
         51.256     4.49203e-10 
        51.2845     4.62137e-10 
        51.3131     4.75442e-10 
        51.3415     4.89132e-10 
          51.37     5.03215e-10 
        51.3987     5.17702e-10 
        51.4272     5.32608e-10 
        51.4557     5.47944e-10 
        51.4844      5.6372e-10 
        51.5129     5.79952e-10 
        51.5416     5.96647e-10 
        51.5703     6.13826e-10 
        51.5989     6.31501e-10 
        51.6276     6.49683e-10 
        51.6563     6.68388e-10 
         51.685     6.87633e-10 
        51.7137     7.07431e-10 
        51.7424     7.27799e-10 
        51.7712     7.48754e-10 
           51.8     7.70312e-10 
        51.8287     7.92491e-10 
        51.8575      8.1531e-10 
        51.8863     8.38784e-10 
        51.9152     8.62934e-10 
         51.944     8.87779e-10 
        51.9729     9.13341e-10 
        52.0018     9.39636e-10 
        52.0307     9.66691e-10 
        52.0596     9.94523e-10 
        52.0885      1.02316e-9 
        52.1175      1.05261e-9 
        52.1464      1.08292e-9 
        52.1754       1.1141e-9 
        52.2044      1.14618e-9 
        52.2334      1.17918e-9 
        52.2624      1.21313e-9 
        52.2915      1.24806e-9 
        52.3205        1.284e-9 
        52.3496      1.32097e-9 
        52.3787        1.359e-9 
        52.4078      1.39812e-9 
        52.4369      1.43838e-9 
        52.4661      1.47979e-9 
        52.4952       1.5224e-9 
        52.5244      1.56623e-9 
        52.5536      1.61134e-9 
        52.5828      1.65772e-9 
        52.6121      1.70545e-9 
        52.6413      1.75455e-9 
        52.6705      1.80508e-9 
        52.6997      1.85705e-9 
         52.729      1.91051e-9 
        52.7583      1.96552e-9 
        52.7877       2.0221e-9 
         52.817         2.08e-9 
        52.8463      2.13892e-9 
        52.8758      2.19959e-9 
        52.9051      2.26197e-9 
        52.9345      2.32613e-9 
         52.964       2.3921e-9 
        52.9934      2.45996e-9 
        53.0228      2.52972e-9 
        53.0523      2.60148e-9 
        53.0818      2.67526e-9 
        53.1113      2.75113e-9 
        53.1407      2.82918e-9 
        53.1703      2.90941e-9 
        53.1999      2.99193e-9 
        53.2294      3.07679e-9 
         53.259      3.16406e-9 
        53.2886       3.2538e-9 
        53.3182      3.34608e-9 
        53.3478        3.441e-9 
        53.3775       3.5386e-9 
        53.4071      3.63896e-9 
        53.4368      3.74216e-9 
        53.4665      3.84832e-9 
        53.4963      3.95746e-9 
         53.526       4.0697e-9 
        53.5557      4.18514e-9 
        53.5855      4.30383e-9 
        53.6153       4.4259e-9 
         53.645      4.55144e-9 
        53.6749      4.68053e-9 
        53.7047      4.81328e-9 
        53.7345       4.9498e-9 
        53.7644      5.09019e-9 
        53.7942      5.23458e-9 
        53.8242      5.38303e-9 
         53.854      5.53572e-9 
        53.8839      5.69274e-9 
        53.9139       5.8542e-9 
        53.9439      6.02024e-9 
        53.9739      6.19098e-9 
        54.0038      6.36659e-9 
        54.0339      6.54714e-9 
        54.0639      6.73285e-9 
         54.094      6.92381e-9 
         54.124      7.12018e-9 
         54.154      7.32216e-9 
        54.1842      7.52982e-9 
        54.2143       7.7434e-9 
        54.2444      7.96302e-9 
        54.2745      8.18888e-9 
        54.3047      8.42114e-9 
        54.3349      8.65997e-9 
        54.3651       8.9056e-9 
        54.3953      9.15821e-9 
        54.4255      9.41796e-9 
        54.4557      9.68508e-9 
         54.486      9.95977e-9 
        54.5163      1.02422e-8 
        54.5466      1.05328e-8 
        54.5769      1.08315e-8 
        54.6072      1.11387e-8 
        54.6376      1.14546e-8 
        54.6679      1.17795e-8 
        54.6984      1.21136e-8 
        54.7287      1.24572e-8 
        54.7591      1.28106e-8 
        54.7895      1.31739e-8 
          54.82      1.35476e-8 
        54.8505      1.39317e-8 
         54.881      1.43269e-8 
        54.9115      1.47333e-8 
         54.942      1.51511e-8 
        54.9725       1.5581e-8 
         55.003      1.60228e-8 
        55.0336      1.64773e-8 
        55.0642      1.69447e-8 
        55.0948      1.74253e-8 
        55.1254      1.79194e-8 
        55.1561      1.84277e-8 
        55.1867      1.89504e-8 
        55.2174      1.94878e-8 
         55.248      2.00374e-8 
        55.2788      2.05912e-8 
        55.3095      2.11607e-8 
        55.3402      2.17459e-8 
         55.371      2.23471e-8 
        55.4017      2.29652e-8 
        55.4325      2.36002e-8 
        55.4633      2.42529e-8 
        55.4941      2.49236e-8 
         55.525      2.56128e-8 
        55.5558      2.63212e-8 
        55.5867      2.70489e-8 
        55.6176      2.77969e-8 
        55.6485      2.85656e-8 
        55.6794      2.93556e-8 
        55.7104      3.01674e-8 
        55.7413      3.10016e-8 
        55.7723      3.18589e-8 
        55.8033      3.27399e-8 
        55.8343      3.36452e-8 
        55.8653      3.45758e-8 
        55.8964      3.55319e-8 
        55.9275      3.65145e-8 
        55.9586      3.75242e-8 
        55.9896      3.85619e-8 
        56.0208      3.96282e-8 
        56.0519       4.0724e-8 
         56.083      4.18502e-8 
        56.1142      4.30076e-8 
        56.1453       4.4197e-8 
        56.1766      4.54191e-8 
        56.2077      4.66751e-8 
        56.2391      4.79658e-8 
        56.2703      4.92922e-8 
        56.3016      5.06553e-8 
        56.3328      5.20562e-8 
        56.3642      5.34957e-8 
        56.3954      5.49752e-8 
        56.4268      5.64953e-8 
        56.4582      5.80576e-8 
        56.4896       5.9663e-8 
        56.5209      6.13131e-8 
        56.5523      6.30086e-8 
        56.5837      6.47511e-8 
        56.6152      6.65414e-8 
        56.6467      6.83816e-8 
        56.6782      7.02726e-8 
        56.7096      7.22161e-8 
        56.7412      7.42131e-8 
        56.7726      7.62654e-8 
        56.8043      7.83742e-8 
        56.8358      8.05415e-8 
        56.8674      8.27688e-8 
         56.899      8.50576e-8 
        56.9306        8.741e-8 
        56.9623      8.98269e-8 
        56.9939      9.23112e-8 
        57.0256       9.4864e-8 
        57.0572      9.74873e-8 
         57.089      1.00183e-7 
        57.1207      1.02953e-7 
        57.1524      1.05801e-7 
        57.1841      1.08726e-7 
         57.216      1.11733e-7 
        57.2478      1.14823e-7 
        57.2795      1.17999e-7 
        57.3114      1.21261e-7 
        57.3433      1.24614e-7 
        57.3751       1.2806e-7 
         57.407      1.31602e-7 
        57.4389      1.35241e-7 
        57.4708      1.38981e-7 
        57.5028      1.42824e-7 
        57.5347      1.46774e-7 
        57.5667      1.50833e-7 
        57.5987      1.55003e-7 
        57.6307       1.5929e-7 
        57.6627      1.63695e-7 
        57.6948      1.68222e-7 
        57.7268      1.72874e-7 
        57.7589      1.77655e-7 
         57.791      1.82567e-7 
        57.8231      1.87616e-7 
        57.8552      1.92804e-7 
        57.8874      1.98135e-7 
        57.9196      2.03577e-7 
        57.9517      2.09024e-7 
        57.9839      2.14613e-7 
        58.0162      2.20351e-7 
        58.0485      2.26243e-7 
        58.0806      2.32294e-7 
        58.1129      2.38505e-7 
        58.1453      2.44882e-7 
        58.1776      2.51431e-7 
        58.2099      2.58154e-7 
        58.2422      2.65056e-7 
        58.2746      2.72144e-7 
         58.307      2.79421e-7 
        58.3393      2.86892e-7 
        58.3718      2.94564e-7 
        58.4042      3.02441e-7 
        58.4367      3.10528e-7 
        58.4692       3.1883e-7 
        58.5017      3.27356e-7 
        58.5341       3.3611e-7 
        58.5667      3.45097e-7 
        58.5992      3.54324e-7 
        58.6318      3.63799e-7 
        58.6644      3.73527e-7 
         58.697      3.83515e-7 
        58.7296      3.93769e-7 
        58.7622        4.043e-7 
        58.7949      4.15109e-7 
        58.8276      4.26209e-7 
        58.8603      4.37606e-7 
         58.893      4.49306e-7 
        58.9256      4.61323e-7 
        58.9584      4.73657e-7 
        58.9912      4.86323e-7 
         59.024      4.99325e-7 
        59.0568      5.12677e-7 
        59.0896      5.26387e-7 
        59.1224      5.40464e-7 
        59.1553      5.54914e-7 
        59.1882      5.69751e-7 
        59.2211      5.84987e-7 
         59.254      6.00629e-7 
        59.2869      6.16689e-7 
        59.3199      6.33179e-7 
        59.3529       6.5011e-7 
        59.3858      6.67495e-7 
        59.4187      6.85343e-7 
        59.4518      7.03668e-7 
        59.4849      7.22483e-7 
        59.5179      7.41802e-7 
        59.5509      7.61639e-7 
        59.5841      7.82004e-7 
        59.6171      8.02916e-7 
        59.6503      8.24383e-7 
        59.6835      8.46427e-7 
        59.7166       8.6906e-7 
        59.7498      8.92297e-7 
         59.783      9.16159e-7 
        59.8162      9.40655e-7 
        59.8494      9.65809e-7 
        59.8827      9.91635e-7 
        59.9161      1.01815e-6 
        59.9493      1.04538e-6 
        59.9826      1.07333e-6 
         60.016      1.10203e-6 
        60.0493      1.13149e-6 
        60.0826      1.16175e-6 
        60.1161      1.19282e-6 
        60.1495      1.22471e-6 
        60.1829      1.25746e-6 
        60.2163      1.29108e-6 
        60.2499       1.3256e-6 
        60.2833      1.36105e-6 
        60.3168      1.39744e-6 
        60.3503      1.43481e-6 
        60.3838      1.47317e-6 
        60.4174      1.51257e-6 
        60.4509      1.55302e-6 
        60.4846      1.59454e-6 
        60.5182      1.63718e-6 
        60.5518      1.68096e-6 
        60.5854       1.7259e-6 
        60.6191      1.77205e-6 
        60.6528      1.81944e-6 
        60.6865      1.86809e-6 
        60.7203      1.91804e-6 
         60.754      1.96932e-6 
        60.7878      2.02199e-6 
        60.8215      2.07605e-6 
        60.8554      2.13143e-6 
        60.8891      2.18645e-6 
         60.923      2.24255e-6 
        60.9568      2.30009e-6 
        60.9907      2.35911e-6 
        61.0246      2.41964e-6 
        61.0585      2.48173e-6 
        61.0925       2.5454e-6 
        61.1264      2.61071e-6 
        61.1604       2.6777e-6 
        61.1944      2.74641e-6 
        61.2284      2.81688e-6 
        61.2624      2.88916e-6 
        61.2965      2.96328e-6 
        61.3305      3.03932e-6 
        61.3646      3.11731e-6 
        61.3987      3.19729e-6 
        61.4328      3.27934e-6 
        61.4669      3.36348e-6 
        61.5011      3.44978e-6 
        61.5353       3.5383e-6 
        61.5694      3.62909e-6 
        61.6037       3.7222e-6 
        61.6379      3.81771e-6 
        61.6721      3.91567e-6 
        61.7064      4.01614e-6 
        61.7407      4.11919e-6 
         61.775      4.22487e-6 
        61.8093      4.33329e-6 
        61.8437      4.44447e-6 
        61.8781      4.55851e-6 
        61.9124      4.67548e-6 
        61.9469      4.79545e-6 
        61.9813      4.91848e-6 
        62.0157      5.04469e-6 
        62.0502      5.17413e-6 
        62.0846      5.30689e-6 
        62.1191      5.44307e-6 
        62.1536      5.58273e-6 
        62.1882      5.72598e-6 
        62.2228      5.87288e-6 
        62.2574      6.02357e-6 
        62.2919      6.17813e-6 
        62.3265      6.33667e-6 
        62.3613      6.49924e-6 
        62.3959        6.666e-6 
        62.4305      6.83706e-6 
        62.4652      7.01248e-6 
