# TLUSTY OSTAR2002+BSTAR2006
# teff = 55000 K (value for the effective temperature for the model. Temperatures are given in K)
# logg = 4.25 log(cm/s2) (value for Log(G) for the model.)
# z = 0.5  (Z/Z0)
#
# column 1: WAVELENGTH (ANGSTROM), Wavelength in Angstrom
# column 2: FLUX (ERG/CM2/S/A), Flux in erg/cm2/s/A
        44.8829     1.53164e-13 
        44.9078     1.56814e-13 
        44.9328     1.61878e-13 
        44.9578     1.67106e-13 
        44.9827     1.72503e-13 
        45.0077     1.78074e-13 
        45.0327     1.83825e-13 
        45.0578     1.89762e-13 
        45.0828     1.95891e-13 
        45.1079     2.02216e-13 
        45.1329     2.08748e-13 
         45.158      2.1549e-13 
        45.1831     2.22448e-13 
        45.2082     2.29633e-13 
        45.2333     2.37048e-13 
        45.2585     2.44705e-13 
        45.2836     2.52607e-13 
        45.3088     2.60766e-13 
        45.3339     2.69187e-13 
        45.3592      2.7788e-13 
        45.3844     2.86854e-13 
        45.4096      2.9612e-13 
        45.4348     3.05683e-13 
        45.4601     3.15555e-13 
        45.4853     3.25746e-13 
        45.5106     3.36266e-13 
        45.5359     3.47127e-13 
        45.5612     3.58336e-13 
        45.5865     3.69908e-13 
        45.6118     3.81855e-13 
        45.6372     3.94189e-13 
        45.6626     4.06919e-13 
         45.688      4.2006e-13 
        45.7133     4.33627e-13 
        45.7388      4.4763e-13 
        45.7642     4.62086e-13 
        45.7896      4.7701e-13 
         45.815     4.92416e-13 
        45.8405     5.08319e-13 
         45.866     5.24734e-13 
        45.8915     5.41681e-13 
         45.917     5.59175e-13 
        45.9425     5.77235e-13 
         45.968     5.95877e-13 
        45.9936      6.1512e-13 
        46.0191     6.34987e-13 
        46.0447     6.55493e-13 
        46.0702     6.76664e-13 
        46.0959     6.98517e-13 
        46.1215     7.21077e-13 
        46.1471     7.44364e-13 
        46.1728     7.68403e-13 
        46.1984      7.9322e-13 
        46.2241     8.18836e-13 
        46.2498     8.45282e-13 
        46.2755     8.72581e-13 
        46.3012      9.0076e-13 
        46.3269     9.29854e-13 
        46.3527     9.59883e-13 
        46.3784     9.90883e-13 
        46.4042     1.02288e-12 
          46.43     1.05592e-12 
        46.4558     1.09002e-12 
        46.4816     1.12522e-12 
        46.5074     1.16156e-12 
        46.5333     1.19908e-12 
        46.5591      1.2378e-12 
         46.585     1.27778e-12 
        46.6109     1.31904e-12 
        46.6368     1.36156e-12 
        46.6627     1.40489e-12 
        46.6886     1.44962e-12 
        46.7146     1.49579e-12 
        46.7405     1.54343e-12 
        46.7665     1.59258e-12 
        46.7925      1.6433e-12 
        46.8185     1.69563e-12 
        46.8445     1.74963e-12 
        46.8705     1.80536e-12 
        46.8966     1.86285e-12 
        46.9226     1.92217e-12 
        46.9487      1.9834e-12 
        46.9748     2.04655e-12 
        47.0009     2.11172e-12 
        47.0271     2.17898e-12 
        47.0532     2.24836e-12 
        47.0794     2.31997e-12 
        47.1055     2.39387e-12 
        47.1317      2.4701e-12 
        47.1579     2.54876e-12 
        47.1841     2.62993e-12 
        47.2103     2.71368e-12 
        47.2366      2.8001e-12 
        47.2628     2.88928e-12 
         47.289     2.98129e-12 
        47.3154     3.07623e-12 
        47.3416     3.17422e-12 
        47.3679     3.27529e-12 
        47.3943      3.3796e-12 
        47.4206     3.48724e-12 
        47.4469      3.5983e-12 
        47.4733     3.71289e-12 
        47.4997     3.83113e-12 
        47.5261     3.95315e-12 
        47.5525     4.07903e-12 
        47.5789     4.20894e-12 
        47.6054     4.34297e-12 
        47.6318     4.48128e-12 
        47.6583     4.62401e-12 
        47.6847     4.77127e-12 
        47.7113      4.9232e-12 
        47.7378     5.07999e-12 
        47.7643     5.24178e-12 
        47.7908     5.40872e-12 
        47.8174     5.58098e-12 
         47.844      5.7587e-12 
        47.8706     5.94208e-12 
        47.8971     6.13134e-12 
        47.9238      6.3266e-12 
        47.9505     6.52806e-12 
        47.9771     6.73597e-12 
        48.0037     6.95049e-12 
        48.0304     7.17184e-12 
        48.0571     7.40025e-12 
        48.0838     7.63591e-12 
        48.1105      7.8791e-12 
        48.1372     8.13003e-12 
         48.164     8.38894e-12 
        48.1908     8.65609e-12 
        48.2175     8.93178e-12 
        48.2444      9.2162e-12 
        48.2712     9.50971e-12 
         48.298     9.81256e-12 
        48.3248     1.01251e-11 
        48.3517     1.04475e-11 
        48.3785     1.07803e-11 
        48.4054     1.11236e-11 
        48.4323     1.14778e-11 
        48.4592     1.18433e-11 
        48.4862     1.22205e-11 
        48.5131     1.26101e-11 
          48.54     1.30057e-11 
         48.567     1.34112e-11 
         48.594     1.38293e-11 
         48.621     1.42605e-11 
         48.648     1.47052e-11 
        48.6751     1.51637e-11 
        48.7022     1.56365e-11 
        48.7292      1.6124e-11 
        48.7563     1.66268e-11 
        48.7834     1.71452e-11 
        48.8105     1.76798e-11 
        48.8376      1.8231e-11 
        48.8647     1.87994e-11 
        48.8919     1.93856e-11 
         48.919     1.99902e-11 
        48.9463     2.06133e-11 
        48.9735     2.12561e-11 
        49.0007     2.19188e-11 
        49.0279     2.26022e-11 
        49.0551      2.3307e-11 
        49.0824     2.40337e-11 
        49.1097     2.47831e-11 
         49.137     2.55559e-11 
        49.1643     2.63528e-11 
        49.1916     2.71743e-11 
        49.2189     2.80217e-11 
        49.2463     2.88955e-11 
        49.2737     2.97963e-11 
         49.301     3.07254e-11 
        49.3284     3.16833e-11 
        49.3559     3.26713e-11 
        49.3833       3.369e-11 
        49.4107     3.47405e-11 
        49.4382     3.58237e-11 
        49.4656     3.69406e-11 
        49.4932     3.80924e-11 
        49.5206     3.92802e-11 
        49.5481     4.05049e-11 
        49.5757     4.17679e-11 
        49.6032     4.30703e-11 
        49.6308     4.44131e-11 
        49.6584     4.57979e-11 
         49.686     4.72258e-11 
        49.7136     4.86983e-11 
        49.7412     5.02167e-11 
        49.7688     5.17827e-11 
        49.7965      5.3397e-11 
        49.8242     5.50621e-11 
        49.8519     5.67788e-11 
        49.8796     5.85491e-11 
        49.9073     6.03749e-11 
         49.935     6.22572e-11 
        49.9627     6.41986e-11 
        49.9906     6.62001e-11 
        50.0183     6.82642e-11 
        50.0462     7.03927e-11 
        50.0739     7.25876e-11 
        50.1018     7.48509e-11 
        50.1296     7.71848e-11 
        50.1574     7.95915e-11 
        50.1853      8.2073e-11 
        50.2132      8.4632e-11 
        50.2412     8.72708e-11 
         50.269      8.9992e-11 
         50.297      9.2798e-11 
        50.3249     9.56916e-11 
        50.3529     9.86751e-11 
        50.3809     1.01752e-10 
        50.4088     1.04924e-10 
        50.4369     1.08196e-10 
        50.4649     1.11569e-10 
         50.493     1.15048e-10 
         50.521     1.18635e-10 
        50.5491     1.22334e-10 
        50.5771     1.26131e-10 
        50.6053     1.29959e-10 
        50.6334     1.33903e-10 
        50.6616     1.37966e-10 
        50.6897     1.42154e-10 
        50.7179     1.46468e-10 
        50.7461     1.50912e-10 
        50.7742     1.55493e-10 
        50.8025     1.60211e-10 
        50.8307     1.65074e-10 
        50.8589     1.70083e-10 
        50.8872     1.75245e-10 
        50.9155     1.80564e-10 
        50.9438     1.86043e-10 
        50.9721     1.91689e-10 
        51.0004     1.97507e-10 
        51.0288       2.035e-10 
        51.0571     2.09677e-10 
        51.0855     2.16039e-10 
        51.1139     2.22597e-10 
        51.1423     2.29351e-10 
        51.1707     2.36311e-10 
        51.1991     2.43484e-10 
        51.2276     2.50872e-10 
         51.256     2.58486e-10 
        51.2845     2.66331e-10 
        51.3131     2.74413e-10 
        51.3415     2.82741e-10 
          51.37     2.91323e-10 
        51.3987     3.00162e-10 
        51.4272     3.09272e-10 
        51.4557     3.18659e-10 
        51.4844     3.28329e-10 
        51.5129     3.38294e-10 
        51.5416     3.48559e-10 
        51.5703     3.59138e-10 
        51.5989     3.70037e-10 
        51.6276     3.81267e-10 
        51.6563     3.92838e-10 
         51.685      4.0476e-10 
        51.7137     4.17044e-10 
        51.7424       4.297e-10 
        51.7712      4.4274e-10 
           51.8     4.56176e-10 
        51.8287     4.70021e-10 
        51.8575     4.84286e-10 
        51.8863     4.98983e-10 
        51.9152     5.14125e-10 
         51.944     5.29728e-10 
        51.9729     5.45804e-10 
        52.0018     5.62368e-10 
        52.0307     5.79435e-10 
        52.0596      5.9702e-10 
        52.0885     6.15138e-10 
        52.1175     6.33806e-10 
        52.1464     6.53041e-10 
        52.1754      6.7286e-10 
        52.2044     6.93281e-10 
        52.2334     7.14321e-10 
        52.2624     7.35999e-10 
        52.2915     7.58333e-10 
        52.3205     7.81349e-10 
        52.3496     8.05061e-10 
        52.3787     8.29494e-10 
        52.4078     8.54668e-10 
        52.4369     8.80604e-10 
        52.4661     9.07327e-10 
        52.4952     9.34864e-10 
        52.5244     9.63236e-10 
        52.5536     9.92469e-10 
        52.5828      1.02259e-9 
        52.6121      1.05362e-9 
        52.6413       1.0856e-9 
        52.6705      1.11854e-9 
        52.6997      1.15249e-9 
         52.729      1.18747e-9 
        52.7583       1.2235e-9 
        52.7877      1.26063e-9 
         52.817      1.29837e-9 
        52.8463      1.33648e-9 
        52.8758      1.37575e-9 
        52.9051      1.41616e-9 
        52.9345      1.45777e-9 
         52.964      1.50062e-9 
        52.9934      1.54471e-9 
        53.0228       1.5901e-9 
        53.0523      1.63682e-9 
        53.0818      1.68491e-9 
        53.1113      1.73443e-9 
        53.1407      1.78539e-9 
        53.1703      1.83785e-9 
        53.1999      1.89185e-9 
        53.2294      1.94744e-9 
         53.259      2.00466e-9 
        53.2886      2.06357e-9 
        53.3182      2.12419e-9 
        53.3478      2.18662e-9 
        53.3775      2.25086e-9 
        53.4071        2.317e-9 
        53.4368      2.38507e-9 
        53.4665      2.45516e-9 
        53.4963      2.52731e-9 
         53.526      2.60157e-9 
        53.5557        2.678e-9 
        53.5855       2.7567e-9 
        53.6153      2.83769e-9 
         53.645      2.92108e-9 
        53.6749      3.00691e-9 
        53.7047      3.09526e-9 
        53.7345      3.18621e-9 
        53.7644      3.27983e-9 
        53.7942      3.37621e-9 
        53.8242       3.4754e-9 
         53.854      3.57753e-9 
        53.8839      3.68265e-9 
        53.9139      3.79086e-9 
        53.9439      3.90224e-9 
        53.9739       4.0169e-9 
        54.0038      4.13494e-9 
        54.0339      4.25642e-9 
        54.0639       4.3815e-9 
         54.094      4.51024e-9 
         54.124      4.64277e-9 
         54.154       4.7792e-9 
        54.1842      4.91961e-9 
        54.2143      5.06418e-9 
        54.2444      5.21298e-9 
        54.2745      5.36616e-9 
        54.3047      5.52383e-9 
        54.3349      5.68613e-9 
        54.3651      5.85321e-9 
        54.3953       6.0252e-9 
        54.4255      6.20225e-9 
        54.4557      6.38449e-9 
         54.486      6.57208e-9 
        54.5163      6.76518e-9 
        54.5466      6.96397e-9 
        54.5769       7.1686e-9 
        54.6072      7.37925e-9 
        54.6376      7.59607e-9 
        54.6679      7.81926e-9 
        54.6984      8.04901e-9 
        54.7287      8.28552e-9 
        54.7591      8.52898e-9 
        54.7895       8.7796e-9 
          54.82      9.03757e-9 
        54.8505      9.30311e-9 
         54.881      9.57645e-9 
        54.9115      9.85786e-9 
         54.942      1.01475e-8 
        54.9725      1.04457e-8 
         55.003      1.07526e-8 
        55.0336      1.10686e-8 
        55.0642      1.13938e-8 
        55.0948      1.17286e-8 
        55.1254      1.20732e-8 
        55.1561       1.2428e-8 
        55.1867      1.27932e-8 
        55.2174       1.3169e-8 
         55.248      1.35526e-8 
        55.2788      1.39365e-8 
        55.3095      1.43312e-8 
        55.3402      1.47372e-8 
         55.371      1.51547e-8 
        55.4017      1.55841e-8 
        55.4325      1.60256e-8 
        55.4633      1.64795e-8 
        55.4941      1.69464e-8 
         55.525      1.74264e-8 
        55.5558      1.79202e-8 
        55.5867      1.84278e-8 
        55.6176      1.89499e-8 
        55.6485      1.94868e-8 
        55.6794      2.00387e-8 
        55.7104      2.06065e-8 
        55.7413      2.11902e-8 
        55.7723      2.17905e-8 
        55.8033      2.24078e-8 
        55.8343      2.30426e-8 
        55.8653      2.36954e-8 
        55.8964      2.43666e-8 
        55.9275      2.50569e-8 
        55.9586      2.57668e-8 
        55.9896      2.64968e-8 
        56.0208      2.72473e-8 
        56.0519      2.80193e-8 
         56.083      2.88129e-8 
        56.1142      2.96292e-8 
        56.1453      3.04687e-8 
        56.1766      3.13318e-8 
        56.2077      3.22194e-8 
        56.2391      3.31321e-8 
        56.2703      3.40707e-8 
        56.3016      3.50358e-8 
        56.3328      3.60285e-8 
        56.3642      3.70491e-8 
        56.3954      3.80987e-8 
        56.4268      3.91778e-8 
        56.4582      4.02877e-8 
        56.4896      4.14291e-8 
        56.5209      4.26028e-8 
        56.5523      4.38096e-8 
        56.5837      4.50509e-8 
        56.6152       4.6327e-8 
        56.6467      4.76393e-8 
        56.6782       4.8989e-8 
        56.7096      5.03769e-8 
        56.7412       5.1804e-8 
        56.7726      5.32717e-8 
        56.8043      5.47806e-8 
        56.8358      5.63324e-8 
        56.8674      5.79283e-8 
         56.899      5.95694e-8 
        56.9306       6.1257e-8 
        56.9623      6.29923e-8 
        56.9939      6.47768e-8 
        57.0256       6.6612e-8 
        57.0572       6.8499e-8 
         57.089      7.04395e-8 
        57.1207      7.24349e-8 
        57.1524      7.44871e-8 
        57.1841      7.65973e-8 
         57.216       7.8767e-8 
        57.2478      8.09984e-8 
        57.2795      8.32933e-8 
        57.3114      8.56528e-8 
        57.3433      8.80791e-8 
        57.3751      9.05745e-8 
         57.407      9.31403e-8 
        57.4389       9.5779e-8 
        57.4708      9.84923e-8 
        57.5028      1.01282e-7 
        57.5347      1.04152e-7 
        57.5667      1.07102e-7 
        57.5987      1.10136e-7 
        57.6307      1.13256e-7 
        57.6627      1.16465e-7 
        57.6948      1.19764e-7 
        57.7268      1.23157e-7 
        57.7589      1.26646e-7 
         57.791      1.30234e-7 
        57.8231      1.33923e-7 
        57.8552      1.37717e-7 
        57.8874      1.41618e-7 
        57.9196      1.45598e-7 
        57.9517      1.49567e-7 
        57.9839      1.53641e-7 
        58.0162      1.57825e-7 
        58.0485      1.62124e-7 
        58.0806      1.66541e-7 
        58.1129      1.71077e-7 
        58.1453      1.75736e-7 
        58.1776      1.80523e-7 
        58.2099      1.85441e-7 
        58.2422      1.90492e-7 
        58.2746       1.9568e-7 
         58.307       2.0101e-7 
        58.3393      2.06486e-7 
        58.3718       2.1211e-7 
        58.4042      2.17887e-7 
        58.4367      2.23822e-7 
        58.4692      2.29919e-7 
        58.5017      2.36181e-7 
        58.5341      2.42615e-7 
        58.5667      2.49223e-7 
        58.5992      2.56012e-7 
        58.6318      2.62985e-7 
        58.6644      2.70148e-7 
         58.697      2.77507e-7 
        58.7296      2.85066e-7 
        58.7622      2.92831e-7 
        58.7949      3.00806e-7 
        58.8276      3.08999e-7 
        58.8603      3.17416e-7 
         58.893      3.26063e-7 
        58.9256      3.34944e-7 
        58.9584      3.44068e-7 
        58.9912       3.5344e-7 
         59.024      3.63066e-7 
        59.0568      3.72955e-7 
        59.0896      3.83114e-7 
        59.1224       3.9355e-7 
        59.1553      4.04269e-7 
        59.1882      4.15281e-7 
        59.2211      4.26592e-7 
         59.254      4.38212e-7 
        59.2869      4.50149e-7 
        59.3199      4.62409e-7 
        59.3529      4.75004e-7 
        59.3858      4.87944e-7 
        59.4187      5.01235e-7 
        59.4518      5.14887e-7 
        59.4849      5.28912e-7 
        59.5179      5.43319e-7 
        59.5509      5.58119e-7 
        59.5841       5.7332e-7 
        59.6171      5.88938e-7 
        59.6503      6.04977e-7 
        59.6835      6.21457e-7 
        59.7166      6.38384e-7 
        59.7498      6.55772e-7 
         59.783      6.73636e-7 
        59.8162      6.91983e-7 
        59.8494      7.10833e-7 
        59.8827      7.30196e-7 
        59.9161      7.50082e-7 
        59.9493      7.70516e-7 
        59.9826      7.91503e-7 
         60.016       8.1306e-7 
        60.0493      8.35208e-7 
        60.0826      8.57959e-7 
        60.1161      8.81326e-7 
        60.1495      9.05332e-7 
        60.1829      9.29994e-7 
        60.2163      9.55324e-7 
        60.2499      9.81344e-7 
        60.2833      1.00808e-6 
        60.3168      1.03553e-6 
        60.3503      1.06375e-6 
        60.3838      1.09271e-6 
        60.4174      1.12248e-6 
        60.4509      1.15305e-6 
        60.4846      1.18446e-6 
        60.5182      1.21672e-6 
        60.5518      1.24987e-6 
        60.5854      1.28391e-6 
        60.6191      1.31889e-6 
        60.6528      1.35481e-6 
        60.6865      1.39171e-6 
        60.7203      1.42961e-6 
         60.754      1.46856e-6 
        60.7878      1.50856e-6 
        60.8215      1.54965e-6 
        60.8554      1.59175e-6 
        60.8891       1.6335e-6 
         60.923      1.67607e-6 
        60.9568      1.71975e-6 
        60.9907      1.76457e-6 
        61.0246      1.81056e-6 
        61.0585      1.85774e-6 
        61.0925      1.90615e-6 
        61.1264      1.95584e-6 
        61.1604      2.00681e-6 
        61.1944      2.05911e-6 
        61.2284      2.11276e-6 
        61.2624      2.16782e-6 
        61.2965      2.22432e-6 
        61.3305      2.28229e-6 
        61.3646      2.34177e-6 
        61.3987       2.4028e-6 
        61.4328      2.46543e-6 
        61.4669      2.52968e-6 
        61.5011       2.5956e-6 
        61.5353      2.66325e-6 
        61.5694      2.73265e-6 
        61.6037      2.80387e-6 
        61.6379      2.87694e-6 
        61.6721      2.95192e-6 
        61.7064      3.02885e-6 
        61.7407      3.10778e-6 
         61.775      3.18877e-6 
        61.8093      3.27188e-6 
        61.8437      3.35714e-6 
        61.8781      3.44463e-6 
        61.9124      3.53441e-6 
        61.9469      3.62652e-6 
        61.9813      3.72102e-6 
        62.0157      3.81801e-6 
        62.0502       3.9175e-6 
        62.0846       4.0196e-6 
        62.1191      4.12436e-6 
        62.1536      4.23185e-6 
        62.1882      4.34213e-6 
        62.2228      4.45529e-6 
        62.2574      4.57139e-6 
        62.2919      4.69054e-6 
        62.3265      4.81279e-6 
        62.3613      4.93819e-6 
        62.3959      5.06688e-6 
        62.4305      5.19895e-6 
        62.4652      5.33444e-6 
