# Kurucz ODFNEW /NOVER models
# teff = 44000 K (value for the effective temperature for the model. Temperatures are given in K)
# logg = 5.00 log(cm/s2) (value for Log(G) for the model.)
# meta = 0.00  (value for the Metallicity for the model.)
# lh = 1.25  (l/Hp where l is the  mixing length of the convective element and Hp is the pressure scale height)
# vtur = 2.0 km/s (Microturbulence velocity)
#
#                                               WAVELENGTH	#           FLUX	
#                                               (ANGSTROM)	#  (ERG/CM2/S/A)	
##########################################################	################	
     fn:data/fp00k2odfnew.pck.teff=44000..logg=5.00000.dat	                	
                                                      90.9	      2.90544e-6	
                                                      93.5	      8.63369e-6	
                                                      96.1	      2.38887e-5	
                                                      97.7	      4.43459e-5	
                                                      99.6	      8.88645e-5	
                                                     102.0	      2.06076e-4	
                                                     103.8	      3.77903e-4	
                                                     105.6	      6.78808e-4	
                                                     107.7	      1.31149e-3	
                                                     110.4	      2.94778e-3	
                                                     114.0	      8.17612e-3	
                                                     117.8	      2.24542e-2	
                                                     121.3	      5.40016e-2	
                                                     124.8	      1.23504e-1	
                                                     127.1	      2.07667e-1	
                                                     128.4	      2.76311e-1	
                                                     130.5	      4.32690e-1	
                                                     132.4	      6.41892e-1	
                                                     133.9	      8.71518e-1	
                                                     136.6	      1.47552e+0	
                                                     139.8	      2.72119e+0	
                                                     143.3	      5.10786e+0	
                                                     147.2	      9.77857e+0	
                                                     151.0	      1.86936e+1	
                                                     155.2	      3.60057e+1	
                                                     158.8	      6.16484e+1	
                                                     162.0	      9.86986e+1	
                                                     166.0	      1.72711e+2	
                                                     170.3	      3.01207e+2	
                                                     173.4	      4.44056e+2	
                                                     176.8	      6.79600e+2	
                                                     180.2	      1.01580e+3	
                                                     181.7	      1.18833e+3	
                                                     186.1	      1.97474e+3	
                                                     191.0	      3.32572e+3	
                                                     193.9	      4.51368e+3	
                                                     198.4	      7.02992e+3	
                                                     201.8	      9.62472e+3	
                                                     205.0	      1.30361e+4	
                                                     210.5	      2.12145e+4	
                                                     216.2	      3.39845e+4	
                                                     219.8	      4.57633e+4	
                                                     223.0	      5.84002e+4	
                                                     226.8	      7.77290e+4	
                                                     230.0	      1.92866e+7	
                                                     234.0	      7.57369e+7	
                                                     240.0	      1.12856e+8	
                                                     246.5	      1.80856e+8	
                                                     252.4	      4.08992e+8	
                                                     256.8	      7.88580e+8	
                                                     260.0	      1.02949e+9	
                                                     264.0	      7.26262e+9	
                                                     268.5	      9.37694e+9	
                                                     273.5	     1.16430e+10	
                                                     278.5	      7.14534e+9	
                                                     284.0	     1.64287e+10	
                                                     290.0	     2.48055e+10	
                                                     296.0	     1.76997e+10	
                                                     301.0	     1.33472e+10	
                                                     308.0	     3.58669e+10	
                                                     318.0	     1.24105e+10	
                                                     328.0	     1.91779e+10	
                                                     338.0	     1.36471e+10	
                                                     348.0	     1.46628e+10	
                                                     357.0	     3.93109e+10	
                                                     366.0	     7.71792e+10	
                                                     375.0	     9.90952e+10	
                                                     385.0	     8.83566e+10	
                                                     395.0	     1.38861e+11	
                                                     405.0	     1.99125e+11	
                                                     414.0	     1.86523e+11	
                                                     422.0	     1.73544e+11	
                                                     430.0	     1.59111e+11	
                                                     441.0	     1.85656e+11	
                                                     451.0	     1.91383e+11	
                                                     460.0	     1.58415e+11	
                                                     470.0	     1.68522e+11	
                                                     480.0	     1.88104e+11	
                                                     490.0	     1.44899e+11	
                                                     500.0	     1.91650e+11	
                                                     506.0	     1.51730e+11	
                                                     512.0	     2.27825e+11	
                                                     520.0	     2.08957e+11	
                                                     530.0	     1.89398e+11	
                                                     540.0	     1.60627e+11	
                                                     550.0	     1.42448e+11	
                                                     560.0	     1.86251e+11	
                                                     570.0	     2.02998e+11	
                                                     580.0	     1.94569e+11	
                                                     590.0	     1.94112e+11	
                                                     600.0	     1.63323e+11	
                                                     610.0	     1.52241e+11	
                                                     620.0	     1.86885e+11	
                                                     630.0	     1.72125e+11	
                                                     640.0	     1.86001e+11	
                                                     650.0	     1.72796e+11	
                                                     658.0	     1.52497e+11	
                                                     665.0	     1.73421e+11	
                                                     675.0	     1.77837e+11	
                                                     685.0	     1.55060e+11	
                                                     695.0	     1.69348e+11	
                                                     705.0	     1.46182e+11	
                                                     716.0	     1.65704e+11	
                                                     726.0	     1.65080e+11	
                                                     735.0	     1.63021e+11	
                                                     745.0	     1.53387e+11	
                                                     755.0	     1.49311e+11	
                                                     765.0	     1.36890e+11	
                                                     775.0	     1.43441e+11	
                                                     785.0	     1.30713e+11	
                                                     795.0	     1.37859e+11	
                                                     805.0	     1.36612e+11	
                                                     815.0	     1.34806e+11	
                                                     825.0	     1.33705e+11	
                                                     835.0	     1.17829e+11	
                                                     845.0	     1.26950e+11	
                                                     855.0	     1.21096e+11	
                                                     865.0	     1.23669e+11	
                                                     875.0	     1.21917e+11	
                                                     885.0	     1.18384e+11	
                                                     895.0	     1.16228e+11	
                                                     905.0	     1.11958e+11	
                                                     915.0	     8.32590e+10	
                                                     925.0	     1.31341e+11	
                                                     935.0	     1.72674e+11	
                                                     945.0	     2.02631e+11	
                                                     955.0	     2.26015e+11	
                                                     965.0	     2.49173e+11	
                                                     975.0	     1.79329e+11	
                                                     985.0	     2.21881e+11	
                                                     995.0	     1.95906e+11	
                                                    1005.0	     1.98607e+11	
                                                    1015.0	     2.02256e+11	
                                                    1025.0	     1.71569e+11	
                                                    1035.0	     2.03877e+11	
                                                    1045.0	     2.09494e+11	
                                                    1055.0	     2.03115e+11	
                                                    1065.0	     1.88982e+11	
                                                    1075.0	     1.91047e+11	
                                                    1085.0	     1.73170e+11	
                                                    1095.0	     1.81377e+11	
                                                    1105.0	     1.74665e+11	
                                                    1115.0	     1.71495e+11	
                                                    1125.0	     1.62170e+11	
                                                    1135.0	     1.65411e+11	
                                                    1145.0	     1.63163e+11	
                                                    1155.0	     1.53028e+11	
                                                    1165.0	     1.43850e+11	
                                                    1175.0	     1.26453e+11	
                                                    1185.0	     1.36696e+11	
                                                    1195.0	     1.30231e+11	
                                                    1205.0	     1.27238e+11	
                                                    1215.0	     1.03378e+11	
                                                    1225.0	     1.19454e+11	
                                                    1235.0	     1.18217e+11	
                                                    1245.0	     1.14920e+11	
                                                    1255.0	     1.15675e+11	
                                                    1265.0	     1.15343e+11	
                                                    1275.0	     1.14834e+11	
                                                    1285.0	     1.13058e+11	
                                                    1295.0	     1.10957e+11	
                                                    1305.0	     1.06941e+11	
                                                    1315.0	     1.06103e+11	
                                                    1325.0	     1.03593e+11	
                                                    1335.0	     1.01512e+11	
                                                    1345.0	     9.94271e+10	
                                                    1355.0	     9.53097e+10	
                                                    1365.0	     9.14415e+10	
                                                    1375.0	     8.78548e+10	
                                                    1385.0	     8.71856e+10	
                                                    1395.0	     8.34757e+10	
                                                    1405.0	     7.95340e+10	
                                                    1415.0	     8.46872e+10	
                                                    1425.0	     7.82746e+10	
                                                    1435.0	     8.06433e+10	
                                                    1442.0	     7.72643e+10	
                                                    1447.0	     7.70173e+10	
                                                    1455.0	     7.45497e+10	
                                                    1465.0	     7.38830e+10	
                                                    1475.0	     7.27425e+10	
                                                    1485.0	     7.28700e+10	
                                                    1495.0	     7.06272e+10	
                                                    1505.0	     6.98298e+10	
                                                    1512.0	     6.92458e+10	
                                                    1517.0	     6.76802e+10	
                                                    1525.0	     6.69556e+10	
                                                    1535.0	     6.19836e+10	
                                                    1545.0	     5.29547e+10	
                                                    1555.0	     5.37138e+10	
                                                    1565.0	     5.75242e+10	
                                                    1575.0	     5.82812e+10	
                                                    1585.0	     5.70442e+10	
                                                    1595.0	     5.68275e+10	
                                                    1605.0	     5.40271e+10	
                                                    1615.0	     5.22754e+10	
                                                    1625.0	     5.23261e+10	
                                                    1635.0	     5.14906e+10	
                                                    1645.0	     4.93350e+10	
                                                    1655.0	     5.10061e+10	
                                                    1665.0	     4.99943e+10	
                                                    1672.0	     4.74488e+10	
                                                    1677.0	     5.06409e+10	
                                                    1685.0	     4.95629e+10	
                                                    1695.0	     4.87490e+10	
                                                    1705.0	     4.73055e+10	
                                                    1715.0	     4.53091e+10	
                                                    1725.0	     4.45195e+10	
                                                    1735.0	     4.53019e+10	
                                                    1745.0	     4.45638e+10	
                                                    1755.0	     4.34789e+10	
                                                    1765.0	     4.27399e+10	
                                                    1775.0	     4.17668e+10	
                                                    1785.0	     4.16160e+10	
                                                    1795.0	     4.03913e+10	
                                                    1805.0	     3.97414e+10	
                                                    1815.0	     3.90027e+10	
                                                    1825.0	     3.81954e+10	
                                                    1835.0	     3.77957e+10	
                                                    1845.0	     3.72411e+10	
                                                    1855.0	     3.66667e+10	
                                                    1865.0	     3.61412e+10	
                                                    1875.0	     3.52049e+10	
                                                    1885.0	     3.45301e+10	
                                                    1895.0	     3.45097e+10	
                                                    1905.0	     3.39635e+10	
                                                    1915.0	     3.33633e+10	
                                                    1925.0	     3.19033e+10	
                                                    1935.0	     3.23644e+10	
                                                    1945.0	     3.18889e+10	
                                                    1955.0	     3.08154e+10	
                                                    1967.0	     3.06001e+10	
                                                    1976.0	     3.01166e+10	
                                                    1984.0	     2.98675e+10	
                                                    1995.0	     2.92589e+10	
                                                    2005.0	     2.89115e+10	
                                                    2015.0	     2.84184e+10	
                                                    2025.0	     2.79537e+10	
                                                    2035.0	     2.74095e+10	
                                                    2045.0	     2.68358e+10	
                                                    2055.0	     1.98561e+10	
                                                    2065.0	     1.89124e+10	
                                                    2074.0	     1.91541e+10	
                                                    2078.0	     1.95088e+10	
                                                    2085.0	     2.05991e+10	
                                                    2095.0	     2.28466e+10	
                                                    2105.0	     2.40618e+10	
                                                    2115.0	     2.41296e+10	
                                                    2125.0	     2.36010e+10	
                                                    2135.0	     2.33507e+10	
                                                    2145.0	     2.29820e+10	
