# Kurucz ODFNEW /NOVER models
# teff = 47000 K (value for the effective temperature for the model. Temperatures are given in K)
# logg = 4.50 log(cm/s2) (value for Log(G) for the model.)
# meta = 0.00  (value for the Metallicity for the model.)
# lh = 1.25  (l/Hp where l is the  mixing length of the convective element and Hp is the pressure scale height)
# vtur = 2.0 km/s (Microturbulence velocity)
#
#                                               WAVELENGTH	#           FLUX	
#                                               (ANGSTROM)	#  (ERG/CM2/S/A)	
##########################################################	################	
     fn:data/fp00k2odfnew.pck.teff=47000..logg=4.50000.dat	                	
                                                      90.9	      3.00959e-4	
                                                      93.5	      8.24975e-4	
                                                      96.1	      2.09761e-3	
                                                      97.7	      3.74666e-3	
                                                      99.6	      7.13536e-3	
                                                     102.0	      1.55743e-2	
                                                     103.8	      2.73487e-2	
                                                     105.6	      4.71346e-2	
                                                     107.7	      8.69650e-2	
                                                     110.4	      1.84786e-1	
                                                     114.0	      4.77842e-1	
                                                     117.8	      1.21751e+0	
                                                     121.3	      2.76754e+0	
                                                     124.8	      5.95367e+0	
                                                     127.1	      9.66684e+0	
                                                     128.4	      1.30581e+1	
                                                     130.5	      1.97275e+1	
                                                     132.4	      2.83938e+1	
                                                     133.9	      3.77313e+1	
                                                     136.6	      6.11768e+1	
                                                     139.8	      1.07560e+2	
                                                     143.3	      1.89880e+2	
                                                     147.2	      3.32970e+2	
                                                     151.0	      6.11052e+2	
                                                     155.2	      1.10340e+3	
                                                     158.8	      1.80795e+3	
                                                     162.0	      3.28842e+3	
                                                     166.0	      5.43931e+3	
                                                     170.3	      8.61987e+3	
                                                     173.4	      1.19597e+4	
                                                     176.8	      1.75359e+4	
                                                     180.2	      2.52406e+4	
                                                     181.7	      2.77708e+4	
                                                     186.1	      4.51011e+4	
                                                     191.0	      6.93048e+4	
                                                     193.9	      9.48558e+4	
                                                     198.4	      1.39370e+5	
                                                     201.8	      1.70894e+5	
                                                     205.0	      2.32268e+5	
                                                     210.5	      3.47142e+5	
                                                     216.2	      5.11251e+5	
                                                     219.8	      6.62203e+5	
                                                     223.0	      7.88475e+5	
                                                     226.8	      9.87924e+5	
                                                     230.0	      8.82574e+7	
                                                     234.0	      4.26047e+8	
                                                     240.0	      7.84791e+8	
                                                     246.5	      2.31883e+9	
                                                     252.4	      9.24473e+9	
                                                     256.8	     2.12101e+10	
                                                     260.0	     1.87039e+10	
                                                     264.0	     6.03290e+10	
                                                     268.5	     6.85296e+10	
                                                     273.5	     8.05866e+10	
                                                     278.5	     5.47544e+10	
                                                     284.0	     9.92130e+10	
                                                     290.0	     1.45926e+11	
                                                     296.0	     1.19427e+11	
                                                     301.0	     7.83598e+10	
                                                     308.0	     9.32651e+10	
                                                     318.0	     2.81106e+10	
                                                     328.0	     3.56336e+10	
                                                     338.0	     2.36372e+10	
                                                     348.0	     2.47508e+10	
                                                     357.0	     6.34520e+10	
                                                     366.0	     1.31272e+11	
                                                     375.0	     1.64824e+11	
                                                     385.0	     1.29912e+11	
                                                     395.0	     2.20180e+11	
                                                     405.0	     3.32230e+11	
                                                     414.0	     3.23416e+11	
                                                     422.0	     2.87957e+11	
                                                     430.0	     2.72004e+11	
                                                     441.0	     3.38472e+11	
                                                     451.0	     3.39704e+11	
                                                     460.0	     2.84115e+11	
                                                     470.0	     3.11718e+11	
                                                     480.0	     3.47771e+11	
                                                     490.0	     2.85270e+11	
                                                     500.0	     3.89991e+11	
                                                     506.0	     3.15319e+11	
                                                     512.0	     3.79585e+11	
                                                     520.0	     3.56444e+11	
                                                     530.0	     3.28207e+11	
                                                     540.0	     2.63427e+11	
                                                     550.0	     2.14282e+11	
                                                     560.0	     2.80229e+11	
                                                     570.0	     3.25131e+11	
                                                     580.0	     3.22852e+11	
                                                     590.0	     3.18074e+11	
                                                     600.0	     2.73778e+11	
                                                     610.0	     2.21148e+11	
                                                     620.0	     2.83263e+11	
                                                     630.0	     2.44167e+11	
                                                     640.0	     2.86907e+11	
                                                     650.0	     2.65058e+11	
                                                     658.0	     2.36002e+11	
                                                     665.0	     2.70426e+11	
                                                     675.0	     2.68178e+11	
                                                     685.0	     2.37668e+11	
                                                     695.0	     2.56311e+11	
                                                     705.0	     2.25140e+11	
                                                     716.0	     2.41578e+11	
                                                     726.0	     2.44239e+11	
                                                     735.0	     2.37583e+11	
                                                     745.0	     2.23856e+11	
                                                     755.0	     2.15646e+11	
                                                     765.0	     1.88531e+11	
                                                     775.0	     2.07017e+11	
                                                     785.0	     1.79083e+11	
                                                     795.0	     1.95159e+11	
                                                     805.0	     1.97723e+11	
                                                     815.0	     1.93128e+11	
                                                     825.0	     1.90517e+11	
                                                     835.0	     1.71225e+11	
                                                     845.0	     1.79785e+11	
                                                     855.0	     1.67956e+11	
                                                     865.0	     1.73616e+11	
                                                     875.0	     1.71427e+11	
                                                     885.0	     1.64660e+11	
                                                     895.0	     1.60385e+11	
                                                     905.0	     1.54128e+11	
                                                     915.0	     1.15693e+11	
                                                     925.0	     1.71131e+11	
                                                     935.0	     2.07627e+11	
                                                     945.0	     2.22391e+11	
                                                     955.0	     2.47702e+11	
                                                     965.0	     2.50827e+11	
                                                     975.0	     2.06174e+11	
                                                     985.0	     2.26607e+11	
                                                     995.0	     2.01565e+11	
                                                    1005.0	     2.03161e+11	
                                                    1015.0	     2.03752e+11	
                                                    1025.0	     1.91943e+11	
                                                    1035.0	     2.09683e+11	
                                                    1045.0	     2.11313e+11	
                                                    1055.0	     2.06016e+11	
                                                    1065.0	     1.95489e+11	
                                                    1075.0	     1.98128e+11	
                                                    1085.0	     1.84051e+11	
                                                    1095.0	     1.87258e+11	
                                                    1105.0	     1.83360e+11	
                                                    1115.0	     1.79746e+11	
                                                    1125.0	     1.73719e+11	
                                                    1135.0	     1.74409e+11	
                                                    1145.0	     1.72436e+11	
                                                    1155.0	     1.64937e+11	
                                                    1165.0	     1.55175e+11	
                                                    1175.0	     1.43767e+11	
                                                    1185.0	     1.50263e+11	
                                                    1195.0	     1.41612e+11	
                                                    1205.0	     1.39559e+11	
                                                    1215.0	     1.21375e+11	
                                                    1225.0	     1.32207e+11	
                                                    1235.0	     1.24974e+11	
                                                    1245.0	     1.20418e+11	
                                                    1255.0	     1.23848e+11	
                                                    1265.0	     1.22684e+11	
                                                    1275.0	     1.20931e+11	
                                                    1285.0	     1.18600e+11	
                                                    1295.0	     1.17834e+11	
                                                    1305.0	     1.12876e+11	
                                                    1315.0	     1.10599e+11	
                                                    1325.0	     1.07917e+11	
                                                    1335.0	     1.05702e+11	
                                                    1345.0	     1.03363e+11	
                                                    1355.0	     9.88904e+10	
                                                    1365.0	     9.40074e+10	
                                                    1375.0	     8.95804e+10	
                                                    1385.0	     9.08425e+10	
                                                    1395.0	     8.81896e+10	
                                                    1405.0	     8.35665e+10	
                                                    1415.0	     8.97429e+10	
                                                    1425.0	     8.49255e+10	
                                                    1435.0	     8.63111e+10	
                                                    1442.0	     8.16740e+10	
                                                    1447.0	     8.16107e+10	
                                                    1455.0	     7.94969e+10	
                                                    1465.0	     7.84608e+10	
                                                    1475.0	     7.79167e+10	
                                                    1485.0	     7.77182e+10	
                                                    1495.0	     7.53654e+10	
                                                    1505.0	     7.37633e+10	
                                                    1512.0	     7.31859e+10	
                                                    1517.0	     7.11081e+10	
                                                    1525.0	     7.14139e+10	
                                                    1535.0	     6.74437e+10	
                                                    1545.0	     5.91227e+10	
                                                    1555.0	     5.94629e+10	
                                                    1565.0	     6.34046e+10	
                                                    1575.0	     6.38336e+10	
                                                    1585.0	     6.20184e+10	
                                                    1595.0	     6.18298e+10	
                                                    1605.0	     5.94339e+10	
                                                    1615.0	     5.80443e+10	
                                                    1625.0	     5.77658e+10	
                                                    1635.0	     5.72361e+10	
                                                    1645.0	     5.42411e+10	
                                                    1655.0	     5.56933e+10	
                                                    1665.0	     5.48401e+10	
                                                    1672.0	     5.26262e+10	
                                                    1677.0	     5.46863e+10	
                                                    1685.0	     5.39390e+10	
                                                    1695.0	     5.33580e+10	
                                                    1705.0	     5.15520e+10	
                                                    1715.0	     4.92580e+10	
                                                    1725.0	     4.88077e+10	
                                                    1735.0	     4.96022e+10	
                                                    1745.0	     4.86218e+10	
                                                    1755.0	     4.76352e+10	
                                                    1765.0	     4.67607e+10	
                                                    1775.0	     4.57942e+10	
                                                    1785.0	     4.53415e+10	
                                                    1795.0	     4.41315e+10	
                                                    1805.0	     4.34231e+10	
                                                    1815.0	     4.23661e+10	
                                                    1825.0	     4.18058e+10	
                                                    1835.0	     4.11645e+10	
                                                    1845.0	     4.06776e+10	
                                                    1855.0	     3.99162e+10	
                                                    1865.0	     3.93894e+10	
                                                    1875.0	     3.85374e+10	
                                                    1885.0	     3.78116e+10	
                                                    1895.0	     3.76003e+10	
                                                    1905.0	     3.69824e+10	
                                                    1915.0	     3.63690e+10	
                                                    1925.0	     3.50071e+10	
                                                    1935.0	     3.51824e+10	
                                                    1945.0	     3.46344e+10	
                                                    1955.0	     3.38040e+10	
                                                    1967.0	     3.32935e+10	
                                                    1976.0	     3.26552e+10	
                                                    1984.0	     3.24726e+10	
                                                    1995.0	     3.17891e+10	
                                                    2005.0	     3.13688e+10	
                                                    2015.0	     3.08558e+10	
                                                    2025.0	     3.03747e+10	
                                                    2035.0	     2.97502e+10	
                                                    2045.0	     2.91122e+10	
                                                    2055.0	     2.23004e+10	
                                                    2065.0	     2.14824e+10	
                                                    2074.0	     2.19707e+10	
                                                    2078.0	     2.25196e+10	
                                                    2085.0	     2.41079e+10	
                                                    2095.0	     2.62757e+10	
                                                    2105.0	     2.62851e+10	
                                                    2115.0	     2.61323e+10	
                                                    2125.0	     2.56383e+10	
                                                    2135.0	     2.53491e+10	
                                                    2145.0	     2.49102e+10	
