# Kurucz ODFNEW /NOVER models
# teff = 46000 K (value for the effective temperature for the model. Temperatures are given in K)
# logg = 4.50 log(cm/s2) (value for Log(G) for the model.)
# meta = 0.00  (value for the Metallicity for the model.)
# lh = 1.25  (l/Hp where l is the  mixing length of the convective element and Hp is the pressure scale height)
# vtur = 2.0 km/s (Microturbulence velocity)
#
#                                               WAVELENGTH	#           FLUX	
#                                               (ANGSTROM)	#  (ERG/CM2/S/A)	
##########################################################	################	
     fn:data/fp00k2odfnew.pck.teff=46000..logg=4.50000.dat	                	
                                                      90.9	      6.97992e-5	
                                                      93.5	      1.97340e-4	
                                                      96.1	      5.17580e-4	
                                                      97.7	      9.39607e-4	
                                                      99.6	      1.82483e-3	
                                                     102.0	      4.07763e-3	
                                                     103.8	      7.28046e-3	
                                                     105.6	      1.27481e-2	
                                                     107.7	      2.39375e-2	
                                                     110.4	      5.19528e-2	
                                                     114.0	      1.37885e-1	
                                                     117.8	      3.60854e-1	
                                                     121.3	      8.36460e-1	
                                                     124.8	      1.83723e+0	
                                                     127.1	      3.01489e+0	
                                                     128.4	      4.02972e+0	
                                                     130.5	      6.15147e+0	
                                                     132.4	      8.93184e+0	
                                                     133.9	      1.19462e+1	
                                                     136.6	      1.95759e+1	
                                                     139.8	      3.49357e+1	
                                                     143.3	      6.26548e+1	
                                                     147.2	      1.12337e+2	
                                                     151.0	      2.08762e+2	
                                                     155.2	      3.82766e+2	
                                                     158.8	      6.32394e+2	
                                                     162.0	      1.09439e+3	
                                                     166.0	      1.83348e+3	
                                                     170.3	      2.97063e+3	
                                                     173.4	      4.17983e+3	
                                                     176.8	      6.19182e+3	
                                                     180.2	      8.97090e+3	
                                                     181.7	      1.00376e+4	
                                                     186.1	      1.63035e+4	
                                                     191.0	      2.55825e+4	
                                                     193.9	      3.47750e+4	
                                                     198.4	      5.15943e+4	
                                                     201.8	      6.52139e+4	
                                                     205.0	      8.81456e+4	
                                                     210.5	      1.34393e+5	
                                                     216.2	      2.01468e+5	
                                                     219.8	      2.63326e+5	
                                                     223.0	      3.19291e+5	
                                                     226.8	      4.06135e+5	
                                                     230.0	      5.57839e+7	
                                                     234.0	      2.43943e+8	
                                                     240.0	      3.95102e+8	
                                                     246.5	      1.06833e+9	
                                                     252.4	      4.41154e+9	
                                                     256.8	     1.05639e+10	
                                                     260.0	      9.86299e+9	
                                                     264.0	     3.81813e+10	
                                                     268.5	     4.47323e+10	
                                                     273.5	     5.34206e+10	
                                                     278.5	     3.50044e+10	
                                                     284.0	     6.73019e+10	
                                                     290.0	     1.01834e+11	
                                                     296.0	     8.12704e+10	
                                                     301.0	     5.23716e+10	
                                                     308.0	     7.08476e+10	
                                                     318.0	     2.10721e+10	
                                                     328.0	     2.81511e+10	
                                                     338.0	     1.87066e+10	
                                                     348.0	     1.96873e+10	
                                                     357.0	     5.21810e+10	
                                                     366.0	     1.09113e+11	
                                                     375.0	     1.38698e+11	
                                                     385.0	     1.11478e+11	
                                                     395.0	     1.89409e+11	
                                                     405.0	     2.87535e+11	
                                                     414.0	     2.78708e+11	
                                                     422.0	     2.50302e+11	
                                                     430.0	     2.35349e+11	
                                                     441.0	     2.91360e+11	
                                                     451.0	     2.94215e+11	
                                                     460.0	     2.44875e+11	
                                                     470.0	     2.68503e+11	
                                                     480.0	     3.01516e+11	
                                                     490.0	     2.40317e+11	
                                                     500.0	     3.35033e+11	
                                                     506.0	     2.65690e+11	
                                                     512.0	     3.30794e+11	
                                                     520.0	     3.08657e+11	
                                                     530.0	     2.83024e+11	
                                                     540.0	     2.28751e+11	
                                                     550.0	     1.87257e+11	
                                                     560.0	     2.46689e+11	
                                                     570.0	     2.86589e+11	
                                                     580.0	     2.82615e+11	
                                                     590.0	     2.79263e+11	
                                                     600.0	     2.38114e+11	
                                                     610.0	     1.96211e+11	
                                                     620.0	     2.52382e+11	
                                                     630.0	     2.20628e+11	
                                                     640.0	     2.55903e+11	
                                                     650.0	     2.36194e+11	
                                                     658.0	     2.09211e+11	
                                                     665.0	     2.40823e+11	
                                                     675.0	     2.40570e+11	
                                                     685.0	     2.12329e+11	
                                                     695.0	     2.29872e+11	
                                                     705.0	     2.00582e+11	
                                                     716.0	     2.18650e+11	
                                                     726.0	     2.20574e+11	
                                                     735.0	     2.15184e+11	
                                                     745.0	     2.02712e+11	
                                                     755.0	     1.95825e+11	
                                                     765.0	     1.71858e+11	
                                                     775.0	     1.87881e+11	
                                                     785.0	     1.62589e+11	
                                                     795.0	     1.77527e+11	
                                                     805.0	     1.79417e+11	
                                                     815.0	     1.75642e+11	
                                                     825.0	     1.73447e+11	
                                                     835.0	     1.54966e+11	
                                                     845.0	     1.63904e+11	
                                                     855.0	     1.53460e+11	
                                                     865.0	     1.58678e+11	
                                                     875.0	     1.56720e+11	
                                                     885.0	     1.50827e+11	
                                                     895.0	     1.47212e+11	
                                                     905.0	     1.41516e+11	
                                                     915.0	     1.06325e+11	
                                                     925.0	     1.60220e+11	
                                                     935.0	     1.97629e+11	
                                                     945.0	     2.13068e+11	
                                                     955.0	     2.36813e+11	
                                                     965.0	     2.41919e+11	
                                                     975.0	     1.96036e+11	
                                                     985.0	     2.17905e+11	
                                                     995.0	     1.93981e+11	
                                                    1005.0	     1.95242e+11	
                                                    1015.0	     1.96628e+11	
                                                    1025.0	     1.83678e+11	
                                                    1035.0	     2.01897e+11	
                                                    1045.0	     2.03754e+11	
                                                    1055.0	     1.98559e+11	
                                                    1065.0	     1.88195e+11	
                                                    1075.0	     1.90386e+11	
                                                    1085.0	     1.76853e+11	
                                                    1095.0	     1.80186e+11	
                                                    1105.0	     1.76100e+11	
                                                    1115.0	     1.72549e+11	
                                                    1125.0	     1.66334e+11	
                                                    1135.0	     1.67396e+11	
                                                    1145.0	     1.65560e+11	
                                                    1155.0	     1.57817e+11	
                                                    1165.0	     1.48649e+11	
                                                    1175.0	     1.36402e+11	
                                                    1185.0	     1.43349e+11	
                                                    1195.0	     1.35354e+11	
                                                    1205.0	     1.33327e+11	
                                                    1215.0	     1.15480e+11	
                                                    1225.0	     1.26175e+11	
                                                    1235.0	     1.20195e+11	
                                                    1245.0	     1.15956e+11	
                                                    1255.0	     1.18760e+11	
                                                    1265.0	     1.17844e+11	
                                                    1275.0	     1.16417e+11	
                                                    1285.0	     1.14240e+11	
                                                    1295.0	     1.13424e+11	
                                                    1305.0	     1.08668e+11	
                                                    1315.0	     1.06687e+11	
                                                    1325.0	     1.04194e+11	
                                                    1335.0	     1.02089e+11	
                                                    1345.0	     9.99331e+10	
                                                    1355.0	     9.55909e+10	
                                                    1365.0	     9.10575e+10	
                                                    1375.0	     8.69242e+10	
                                                    1385.0	     8.78281e+10	
                                                    1395.0	     8.51195e+10	
                                                    1405.0	     8.06831e+10	
                                                    1415.0	     8.65780e+10	
                                                    1425.0	     8.15675e+10	
                                                    1435.0	     8.31223e+10	
                                                    1442.0	     7.88259e+10	
                                                    1447.0	     7.87465e+10	
                                                    1455.0	     7.66389e+10	
                                                    1465.0	     7.57471e+10	
                                                    1475.0	     7.51028e+10	
                                                    1485.0	     7.49745e+10	
                                                    1495.0	     7.27207e+10	
                                                    1505.0	     7.13602e+10	
                                                    1512.0	     7.08359e+10	
                                                    1517.0	     6.88458e+10	
                                                    1525.0	     6.89936e+10	
                                                    1535.0	     6.49078e+10	
                                                    1545.0	     5.63763e+10	
                                                    1555.0	     5.68892e+10	
                                                    1565.0	     6.08789e+10	
                                                    1575.0	     6.14038e+10	
                                                    1585.0	     5.97330e+10	
                                                    1595.0	     5.95328e+10	
                                                    1605.0	     5.71012e+10	
                                                    1615.0	     5.56742e+10	
                                                    1625.0	     5.54634e+10	
                                                    1635.0	     5.49589e+10	
                                                    1645.0	     5.21834e+10	
                                                    1655.0	     5.36275e+10	
                                                    1665.0	     5.27707e+10	
                                                    1672.0	     5.05171e+10	
                                                    1677.0	     5.27818e+10	
                                                    1685.0	     5.20002e+10	
                                                    1695.0	     5.14069e+10	
                                                    1705.0	     4.96978e+10	
                                                    1715.0	     4.74637e+10	
                                                    1725.0	     4.70314e+10	
                                                    1735.0	     4.78187e+10	
                                                    1745.0	     4.69022e+10	
                                                    1755.0	     4.59117e+10	
                                                    1765.0	     4.50930e+10	
                                                    1775.0	     4.41654e+10	
                                                    1785.0	     4.37820e+10	
                                                    1795.0	     4.25858e+10	
                                                    1805.0	     4.19095e+10	
                                                    1815.0	     4.09514e+10	
                                                    1825.0	     4.03512e+10	
                                                    1835.0	     3.97651e+10	
                                                    1845.0	     3.92842e+10	
                                                    1855.0	     3.85662e+10	
                                                    1865.0	     3.80497e+10	
                                                    1875.0	     3.71979e+10	
                                                    1885.0	     3.65033e+10	
                                                    1895.0	     3.63489e+10	
                                                    1905.0	     3.57470e+10	
                                                    1915.0	     3.51570e+10	
                                                    1925.0	     3.37944e+10	
                                                    1935.0	     3.40303e+10	
                                                    1945.0	     3.34991e+10	
                                                    1955.0	     3.26516e+10	
                                                    1967.0	     3.22019e+10	
                                                    1976.0	     3.16053e+10	
                                                    1984.0	     3.14162e+10	
                                                    1995.0	     3.07659e+10	
                                                    2005.0	     3.03603e+10	
                                                    2015.0	     2.98575e+10	
                                                    2025.0	     2.93943e+10	
                                                    2035.0	     2.87995e+10	
                                                    2045.0	     2.81807e+10	
                                                    2055.0	     2.14377e+10	
                                                    2065.0	     2.06334e+10	
                                                    2074.0	     2.11186e+10	
                                                    2078.0	     2.16576e+10	
                                                    2085.0	     2.32387e+10	
                                                    2095.0	     2.54062e+10	
                                                    2105.0	     2.54536e+10	
                                                    2115.0	     2.53204e+10	
                                                    2125.0	     2.48316e+10	
                                                    2135.0	     2.45590e+10	
                                                    2145.0	     2.41422e+10	
