# Kurucz ODFNEW /NOVER models
# teff = 39000 K (value for the effective temperature for the model. Temperatures are given in K)
# logg = 5.00 log(cm/s2) (value for Log(G) for the model.)
# meta = 0.00  (value for the Metallicity for the model.)
# lh = 1.25  (l/Hp where l is the  mixing length of the convective element and Hp is the pressure scale height)
# vtur = 2.0 km/s (Microturbulence velocity)
#
#                                               WAVELENGTH	#           FLUX	
#                                               (ANGSTROM)	#  (ERG/CM2/S/A)	
##########################################################	################	
     fn:data/fp00k2odfnew.pck.teff=39000..logg=5.00000.dat	                	
                                                      90.9	     8.65594e-10	
                                                      93.5	      3.12833e-9	
                                                      96.1	      1.05090e-8	
                                                      97.7	      2.17127e-8	
                                                      99.6	      4.95590e-8	
                                                     102.0	      1.34781e-7	
                                                     103.8	      2.77603e-7	
                                                     105.6	      5.58405e-7	
                                                     107.7	      1.22672e-6	
                                                     110.4	      3.23560e-6	
                                                     114.0	      1.10103e-5	
                                                     117.8	      3.71659e-5	
                                                     121.3	      1.06938e-4	
                                                     124.8	      2.90523e-4	
                                                     127.1	      5.44558e-4	
                                                     128.4	      7.69315e-4	
                                                     130.5	      1.32480e-3	
                                                     132.4	      2.13693e-3	
                                                     133.9	      3.09068e-3	
                                                     136.6	      5.87782e-3	
                                                     139.8	      1.22809e-2	
                                                     143.3	      2.64364e-2	
                                                     147.2	      5.90726e-2	
                                                     151.0	      1.27247e-1	
                                                     155.2	      2.81339e-1	
                                                     158.8	      5.38232e-1	
                                                     162.0	      9.33155e-1	
                                                     166.0	      1.82227e+0	
                                                     170.3	      3.59232e+0	
                                                     173.4	      5.76330e+0	
                                                     176.8	      9.52665e+0	
                                                     180.2	      1.54082e+1	
                                                     181.7	      1.89501e+1	
                                                     186.1	      3.42519e+1	
                                                     191.0	      6.40671e+1	
                                                     193.9	      9.16244e+1	
                                                     198.4	      1.56205e+2	
                                                     201.8	      2.29443e+2	
                                                     205.0	      3.26627e+2	
                                                     210.5	      5.84613e+2	
                                                     216.2	      1.03003e+3	
                                                     219.8	      1.46483e+3	
                                                     223.0	      1.97240e+3	
                                                     226.8	      2.78170e+3	
                                                     230.0	      1.22605e+6	
                                                     234.0	      3.78203e+6	
                                                     240.0	      5.38059e+6	
                                                     246.5	      7.61554e+6	
                                                     252.4	      1.18035e+7	
                                                     256.8	      1.52255e+7	
                                                     260.0	      2.05307e+7	
                                                     264.0	      4.50144e+7	
                                                     268.5	      6.46260e+7	
                                                     273.5	      7.73333e+7	
                                                     278.5	      7.33331e+7	
                                                     284.0	      1.39634e+8	
                                                     290.0	      1.82891e+8	
                                                     296.0	      1.88077e+8	
                                                     301.0	      3.45244e+8	
                                                     308.0	      1.80192e+9	
                                                     318.0	      1.43790e+9	
                                                     328.0	      2.21656e+9	
                                                     338.0	      2.51043e+9	
                                                     348.0	      3.11236e+9	
                                                     357.0	      6.83944e+9	
                                                     366.0	     1.29660e+10	
                                                     375.0	     1.55954e+10	
                                                     385.0	     1.56129e+10	
                                                     395.0	     2.36723e+10	
                                                     405.0	     3.07860e+10	
                                                     414.0	     2.89566e+10	
                                                     422.0	     2.86349e+10	
                                                     430.0	     2.65606e+10	
                                                     441.0	     2.98508e+10	
                                                     451.0	     3.07662e+10	
                                                     460.0	     2.66845e+10	
                                                     470.0	     2.75734e+10	
                                                     480.0	     3.06862e+10	
                                                     490.0	     2.55945e+10	
                                                     500.0	     3.07065e+10	
                                                     506.0	     3.03594e+10	
                                                     512.0	     8.41859e+10	
                                                     520.0	     7.74931e+10	
                                                     530.0	     6.95390e+10	
                                                     540.0	     6.13258e+10	
                                                     550.0	     6.10476e+10	
                                                     560.0	     7.90088e+10	
                                                     570.0	     8.36505e+10	
                                                     580.0	     7.87540e+10	
                                                     590.0	     7.98623e+10	
                                                     600.0	     6.53638e+10	
                                                     610.0	     6.96238e+10	
                                                     620.0	     8.33432e+10	
                                                     630.0	     7.90403e+10	
                                                     640.0	     8.24052e+10	
                                                     650.0	     7.81619e+10	
                                                     658.0	     6.77798e+10	
                                                     665.0	     7.72023e+10	
                                                     675.0	     8.25760e+10	
                                                     685.0	     6.86789e+10	
                                                     695.0	     7.96552e+10	
                                                     705.0	     6.68195e+10	
                                                     716.0	     8.08127e+10	
                                                     726.0	     7.95880e+10	
                                                     735.0	     7.98545e+10	
                                                     745.0	     7.44873e+10	
                                                     755.0	     7.33205e+10	
                                                     765.0	     6.99740e+10	
                                                     775.0	     7.20060e+10	
                                                     785.0	     6.93762e+10	
                                                     795.0	     7.12721e+10	
                                                     805.0	     6.93087e+10	
                                                     815.0	     6.88662e+10	
                                                     825.0	     6.94541e+10	
                                                     835.0	     5.95712e+10	
                                                     845.0	     6.61999e+10	
                                                     855.0	     6.43049e+10	
                                                     865.0	     6.54648e+10	
                                                     875.0	     6.47003e+10	
                                                     885.0	     6.36987e+10	
                                                     895.0	     6.29321e+10	
                                                     905.0	     6.07994e+10	
                                                     915.0	     4.97134e+10	
                                                     925.0	     8.58363e+10	
                                                     935.0	     1.20553e+11	
                                                     945.0	     1.52957e+11	
                                                     955.0	     1.69689e+11	
                                                     965.0	     1.96314e+11	
                                                     975.0	     1.20605e+11	
                                                     985.0	     1.72301e+11	
                                                     995.0	     1.51659e+11	
                                                    1005.0	     1.54407e+11	
                                                    1015.0	     1.58825e+11	
                                                    1025.0	     1.24778e+11	
                                                    1035.0	     1.56847e+11	
                                                    1045.0	     1.66927e+11	
                                                    1055.0	     1.60758e+11	
                                                    1065.0	     1.46670e+11	
                                                    1075.0	     1.47686e+11	
                                                    1085.0	     1.33626e+11	
                                                    1095.0	     1.41458e+11	
                                                    1105.0	     1.34908e+11	
                                                    1115.0	     1.32786e+11	
                                                    1125.0	     1.20411e+11	
                                                    1135.0	     1.27314e+11	
                                                    1145.0	     1.24448e+11	
                                                    1155.0	     1.16171e+11	
                                                    1165.0	     1.10611e+11	
                                                    1175.0	     8.86879e+10	
                                                    1185.0	     1.02460e+11	
                                                    1195.0	     9.87001e+10	
                                                    1205.0	     9.56236e+10	
                                                    1215.0	     7.42577e+10	
                                                    1225.0	     8.96547e+10	
                                                    1235.0	     9.28151e+10	
                                                    1245.0	     9.06057e+10	
                                                    1255.0	     8.97848e+10	
                                                    1265.0	     9.04732e+10	
                                                    1275.0	     9.11036e+10	
                                                    1285.0	     9.01566e+10	
                                                    1295.0	     8.66985e+10	
                                                    1305.0	     8.47067e+10	
                                                    1315.0	     8.58525e+10	
                                                    1325.0	     8.33276e+10	
                                                    1335.0	     8.12680e+10	
                                                    1345.0	     8.03054e+10	
                                                    1355.0	     7.73150e+10	
                                                    1365.0	     7.47323e+10	
                                                    1375.0	     7.22944e+10	
                                                    1385.0	     7.06257e+10	
                                                    1395.0	     6.51701e+10	
                                                    1405.0	     6.29861e+10	
                                                    1415.0	     6.75744e+10	
                                                    1425.0	     6.12620e+10	
                                                    1435.0	     6.39748e+10	
                                                    1442.0	     6.22375e+10	
                                                    1447.0	     6.19323e+10	
                                                    1455.0	     5.94416e+10	
                                                    1465.0	     5.88346e+10	
                                                    1475.0	     5.79721e+10	
                                                    1485.0	     5.81199e+10	
                                                    1495.0	     5.61919e+10	
                                                    1505.0	     5.56772e+10	
                                                    1512.0	     5.50362e+10	
                                                    1517.0	     5.44234e+10	
                                                    1525.0	     5.29937e+10	
                                                    1535.0	     4.80525e+10	
                                                    1545.0	     4.07517e+10	
                                                    1555.0	     4.13198e+10	
                                                    1565.0	     4.46097e+10	
                                                    1575.0	     4.56929e+10	
                                                    1585.0	     4.53085e+10	
                                                    1595.0	     4.50162e+10	
                                                    1605.0	     4.23775e+10	
                                                    1615.0	     4.07436e+10	
                                                    1625.0	     4.11438e+10	
                                                    1635.0	     4.05646e+10	
                                                    1645.0	     3.94407e+10	
                                                    1655.0	     4.05763e+10	
                                                    1665.0	     3.96811e+10	
                                                    1672.0	     3.71935e+10	
                                                    1677.0	     4.10563e+10	
                                                    1685.0	     3.97240e+10	
                                                    1695.0	     3.87767e+10	
                                                    1705.0	     3.78929e+10	
                                                    1715.0	     3.64419e+10	
                                                    1725.0	     3.53521e+10	
                                                    1735.0	     3.61885e+10	
                                                    1745.0	     3.57056e+10	
                                                    1755.0	     3.47921e+10	
                                                    1765.0	     3.42951e+10	
                                                    1775.0	     3.33765e+10	
                                                    1785.0	     3.34421e+10	
                                                    1795.0	     3.24414e+10	
                                                    1805.0	     3.20448e+10	
                                                    1815.0	     3.14446e+10	
                                                    1825.0	     3.07062e+10	
                                                    1835.0	     3.05818e+10	
                                                    1845.0	     2.99191e+10	
                                                    1855.0	     2.96313e+10	
                                                    1865.0	     2.92624e+10	
                                                    1875.0	     2.84528e+10	
                                                    1885.0	     2.77817e+10	
                                                    1895.0	     2.77390e+10	
                                                    1905.0	     2.75430e+10	
                                                    1915.0	     2.69808e+10	
                                                    1925.0	     2.56235e+10	
                                                    1935.0	     2.62770e+10	
                                                    1945.0	     2.60413e+10	
                                                    1955.0	     2.46992e+10	
                                                    1967.0	     2.49343e+10	
                                                    1976.0	     2.47154e+10	
                                                    1984.0	     2.43988e+10	
                                                    1995.0	     2.37935e+10	
                                                    2005.0	     2.37723e+10	
                                                    2015.0	     2.34052e+10	
                                                    2025.0	     2.30267e+10	
                                                    2035.0	     2.25453e+10	
                                                    2045.0	     2.21199e+10	
                                                    2055.0	     1.67659e+10	
                                                    2065.0	     1.59837e+10	
                                                    2074.0	     1.61816e+10	
                                                    2078.0	     1.63427e+10	
                                                    2085.0	     1.71474e+10	
                                                    2095.0	     1.87197e+10	
                                                    2105.0	     1.98609e+10	
                                                    2115.0	     1.99961e+10	
                                                    2125.0	     1.95155e+10	
                                                    2135.0	     1.93439e+10	
                                                    2145.0	     1.90468e+10	
