# Kurucz ODFNEW /NOVER models
# teff = 41000 K (value for the effective temperature for the model. Temperatures are given in K)
# logg = 5.00 log(cm/s2) (value for Log(G) for the model.)
# meta = 0.00  (value for the Metallicity for the model.)
# lh = 1.25  (l/Hp where l is the  mixing length of the convective element and Hp is the pressure scale height)
# vtur = 2.0 km/s (Microturbulence velocity)
#
#                                               WAVELENGTH	#           FLUX	
#                                               (ANGSTROM)	#  (ERG/CM2/S/A)	
##########################################################	################	
     fn:data/fp00k2odfnew.pck.teff=41000..logg=5.00000.dat	                	
                                                      90.9	      2.59117e-8	
                                                      93.5	      8.56216e-8	
                                                      96.1	      2.63142e-7	
                                                      97.7	      5.17145e-7	
                                                      99.6	      1.11126e-6	
                                                     102.0	      2.80723e-6	
                                                     103.8	      5.47940e-6	
                                                     105.6	      1.04610e-5	
                                                     107.7	      2.16653e-5	
                                                     110.4	      5.31181e-5	
                                                     114.0	      1.64780e-4	
                                                     117.8	      5.07399e-4	
                                                     121.3	      1.34898e-3	
                                                     124.8	      3.40109e-3	
                                                     127.1	      6.08459e-3	
                                                     128.4	      8.37869e-3	
                                                     130.5	      1.38587e-2	
                                                     132.4	      2.15790e-2	
                                                     133.9	      3.03897e-2	
                                                     136.6	      5.51279e-2	
                                                     139.8	      1.09476e-1	
                                                     143.3	      2.23012e-1	
                                                     147.2	      4.68447e-1	
                                                     151.0	      9.62157e-1	
                                                     155.2	      2.01620e+0	
                                                     158.8	      3.69539e+0	
                                                     162.0	      6.19227e+0	
                                                     166.0	      1.16072e+1	
                                                     170.3	      2.18994e+1	
                                                     173.4	      3.40813e+1	
                                                     176.8	      5.47436e+1	
                                                     180.2	      8.60485e+1	
                                                     181.7	      1.03989e+2	
                                                     186.1	      1.82419e+2	
                                                     191.0	      3.29187e+2	
                                                     193.9	      4.61899e+2	
                                                     198.4	      7.63508e+2	
                                                     201.8	      1.09606e+3	
                                                     205.0	      1.53310e+3	
                                                     210.5	      2.65691e+3	
                                                     216.2	      4.53763e+3	
                                                     219.8	      6.33195e+3	
                                                     223.0	      8.37716e+3	
                                                     226.8	      1.15865e+4	
                                                     230.0	      4.28967e+6	
                                                     234.0	      1.50125e+7	
                                                     240.0	      2.17117e+7	
                                                     246.5	      3.13595e+7	
                                                     252.4	      5.17628e+7	
                                                     256.8	      6.78895e+7	
                                                     260.0	      8.94901e+7	
                                                     264.0	      4.01140e+8	
                                                     268.5	      5.34482e+8	
                                                     273.5	      6.60266e+8	
                                                     278.5	      4.51967e+8	
                                                     284.0	      1.08494e+9	
                                                     290.0	      1.57497e+9	
                                                     296.0	      1.17612e+9	
                                                     301.0	      1.66196e+9	
                                                     308.0	      8.16293e+9	
                                                     318.0	      4.10059e+9	
                                                     328.0	      6.65503e+9	
                                                     338.0	      5.92315e+9	
                                                     348.0	      6.83815e+9	
                                                     357.0	     1.67705e+10	
                                                     366.0	     3.23617e+10	
                                                     375.0	     4.07874e+10	
                                                     385.0	     3.86654e+10	
                                                     395.0	     5.95331e+10	
                                                     405.0	     8.20871e+10	
                                                     414.0	     7.62027e+10	
                                                     422.0	     7.32246e+10	
                                                     430.0	     6.70087e+10	
                                                     441.0	     7.63586e+10	
                                                     451.0	     7.89536e+10	
                                                     460.0	     6.63018e+10	
                                                     470.0	     6.89184e+10	
                                                     480.0	     7.70188e+10	
                                                     490.0	     6.01827e+10	
                                                     500.0	     7.60121e+10	
                                                     506.0	     6.49695e+10	
                                                     512.0	     1.31960e+11	
                                                     520.0	     1.20952e+11	
                                                     530.0	     1.08811e+11	
                                                     540.0	     9.46658e+10	
                                                     550.0	     8.90117e+10	
                                                     560.0	     1.16498e+11	
                                                     570.0	     1.25043e+11	
                                                     580.0	     1.18563e+11	
                                                     590.0	     1.19350e+11	
                                                     600.0	     9.83034e+10	
                                                     610.0	     9.92124e+10	
                                                     620.0	     1.20487e+11	
                                                     630.0	     1.13029e+11	
                                                     640.0	     1.19697e+11	
                                                     650.0	     1.12243e+11	
                                                     658.0	     9.80885e+10	
                                                     665.0	     1.11811e+11	
                                                     675.0	     1.17660e+11	
                                                     685.0	     9.99583e+10	
                                                     695.0	     1.12569e+11	
                                                     705.0	     9.52618e+10	
                                                     716.0	     1.12610e+11	
                                                     726.0	     1.11502e+11	
                                                     735.0	     1.11263e+11	
                                                     745.0	     1.04102e+11	
                                                     755.0	     1.01964e+11	
                                                     765.0	     9.54596e+10	
                                                     775.0	     9.90586e+10	
                                                     785.0	     9.29132e+10	
                                                     795.0	     9.68015e+10	
                                                     805.0	     9.49347e+10	
                                                     815.0	     9.41450e+10	
                                                     825.0	     9.41294e+10	
                                                     835.0	     8.15193e+10	
                                                     845.0	     8.96628e+10	
                                                     855.0	     8.64338e+10	
                                                     865.0	     8.80820e+10	
                                                     875.0	     8.69365e+10	
                                                     885.0	     8.50550e+10	
                                                     895.0	     8.37905e+10	
                                                     905.0	     8.08681e+10	
                                                     915.0	     6.29022e+10	
                                                     925.0	     1.03668e+11	
                                                     935.0	     1.41526e+11	
                                                     945.0	     1.72920e+11	
                                                     955.0	     1.92028e+11	
                                                     965.0	     2.17832e+11	
                                                     975.0	     1.44950e+11	
                                                     985.0	     1.92492e+11	
                                                     995.0	     1.69684e+11	
                                                    1005.0	     1.72061e+11	
                                                    1015.0	     1.76611e+11	
                                                    1025.0	     1.43732e+11	
                                                    1035.0	     1.75981e+11	
                                                    1045.0	     1.83962e+11	
                                                    1055.0	     1.77702e+11	
                                                    1065.0	     1.63998e+11	
                                                    1075.0	     1.64951e+11	
                                                    1085.0	     1.49438e+11	
                                                    1095.0	     1.57328e+11	
                                                    1105.0	     1.50590e+11	
                                                    1115.0	     1.48017e+11	
                                                    1125.0	     1.37205e+11	
                                                    1135.0	     1.42395e+11	
                                                    1145.0	     1.39957e+11	
                                                    1155.0	     1.30515e+11	
                                                    1165.0	     1.23676e+11	
                                                    1175.0	     1.03510e+11	
                                                    1185.0	     1.15687e+11	
                                                    1195.0	     1.10978e+11	
                                                    1205.0	     1.07968e+11	
                                                    1215.0	     8.57925e+10	
                                                    1225.0	     1.01155e+11	
                                                    1235.0	     1.02873e+11	
                                                    1245.0	     1.00403e+11	
                                                    1255.0	     9.99646e+10	
                                                    1265.0	     1.00272e+11	
                                                    1275.0	     1.00540e+11	
                                                    1285.0	     9.92643e+10	
                                                    1295.0	     9.64073e+10	
                                                    1305.0	     9.35949e+10	
                                                    1315.0	     9.39634e+10	
                                                    1325.0	     9.15075e+10	
                                                    1335.0	     8.94611e+10	
                                                    1345.0	     8.80754e+10	
                                                    1355.0	     8.45601e+10	
                                                    1365.0	     8.15403e+10	
                                                    1375.0	     7.86530e+10	
                                                    1385.0	     7.73168e+10	
                                                    1395.0	     7.28226e+10	
                                                    1405.0	     6.97878e+10	
                                                    1415.0	     7.44514e+10	
                                                    1425.0	     6.79890e+10	
                                                    1435.0	     7.06086e+10	
                                                    1442.0	     6.82217e+10	
                                                    1447.0	     6.79543e+10	
                                                    1455.0	     6.54402e+10	
                                                    1465.0	     6.48871e+10	
                                                    1475.0	     6.38681e+10	
                                                    1485.0	     6.40378e+10	
                                                    1495.0	     6.19836e+10	
                                                    1505.0	     6.14871e+10	
                                                    1512.0	     6.08780e+10	
                                                    1517.0	     5.98877e+10	
                                                    1525.0	     5.86925e+10	
                                                    1535.0	     5.37060e+10	
                                                    1545.0	     4.55385e+10	
                                                    1555.0	     4.62526e+10	
                                                    1565.0	     4.97533e+10	
                                                    1575.0	     5.07471e+10	
                                                    1585.0	     5.00189e+10	
                                                    1595.0	     4.97697e+10	
                                                    1605.0	     4.70105e+10	
                                                    1615.0	     4.53337e+10	
                                                    1625.0	     4.55849e+10	
                                                    1635.0	     4.48699e+10	
                                                    1645.0	     4.33641e+10	
                                                    1655.0	     4.47518e+10	
                                                    1665.0	     4.37772e+10	
                                                    1672.0	     4.12442e+10	
                                                    1677.0	     4.48969e+10	
                                                    1685.0	     4.36648e+10	
                                                    1695.0	     4.27735e+10	
                                                    1705.0	     4.16706e+10	
                                                    1715.0	     4.00064e+10	
                                                    1725.0	     3.90426e+10	
                                                    1735.0	     3.98553e+10	
                                                    1745.0	     3.92860e+10	
                                                    1755.0	     3.82781e+10	
                                                    1765.0	     3.76968e+10	
                                                    1775.0	     3.67558e+10	
                                                    1785.0	     3.67423e+10	
                                                    1795.0	     3.56336e+10	
                                                    1805.0	     3.51324e+10	
                                                    1815.0	     3.44968e+10	
                                                    1825.0	     3.37081e+10	
                                                    1835.0	     3.34916e+10	
                                                    1845.0	     3.29238e+10	
                                                    1855.0	     3.25140e+10	
                                                    1865.0	     3.20601e+10	
                                                    1875.0	     3.11820e+10	
                                                    1885.0	     3.05489e+10	
                                                    1895.0	     3.05578e+10	
                                                    1905.0	     3.01840e+10	
                                                    1915.0	     2.96229e+10	
                                                    1925.0	     2.82271e+10	
                                                    1935.0	     2.87994e+10	
                                                    1945.0	     2.84363e+10	
                                                    1955.0	     2.72275e+10	
                                                    1967.0	     2.72683e+10	
                                                    1976.0	     2.69211e+10	
                                                    1984.0	     2.66546e+10	
                                                    1995.0	     2.60728e+10	
                                                    2005.0	     2.58808e+10	
                                                    2015.0	     2.54511e+10	
                                                    2025.0	     2.50304e+10	
                                                    2035.0	     2.45403e+10	
                                                    2045.0	     2.40513e+10	
                                                    2055.0	     1.79175e+10	
                                                    2065.0	     1.70633e+10	
                                                    2074.0	     1.72781e+10	
                                                    2078.0	     1.75441e+10	
                                                    2085.0	     1.84863e+10	
                                                    2095.0	     2.04012e+10	
                                                    2105.0	     2.15877e+10	
                                                    2115.0	     2.16889e+10	
                                                    2125.0	     2.11849e+10	
                                                    2135.0	     2.09828e+10	
                                                    2145.0	     2.06615e+10	
