# Kurucz ODFNEW /NOVER models
# teff = 43000 K (value for the effective temperature for the model. Temperatures are given in K)
# logg = 5.00 log(cm/s2) (value for Log(G) for the model.)
# meta = 0.00  (value for the Metallicity for the model.)
# lh = 1.25  (l/Hp where l is the  mixing length of the convective element and Hp is the pressure scale height)
# vtur = 2.0 km/s (Microturbulence velocity)
#
#                                               WAVELENGTH	#           FLUX	
#                                               (ANGSTROM)	#  (ERG/CM2/S/A)	
##########################################################	################	
     fn:data/fp00k2odfnew.pck.teff=43000..logg=5.00000.dat	                	
                                                      90.9	      6.00604e-7	
                                                      93.5	      1.84856e-6	
                                                      96.1	      5.29451e-6	
                                                      97.7	      1.00090e-5	
                                                      99.6	      2.05106e-5	
                                                     102.0	      4.88656e-5	
                                                     103.8	      9.13674e-5	
                                                     105.6	      1.67245e-4	
                                                     107.7	      3.30048e-4	
                                                     110.4	      7.61641e-4	
                                                     114.0	      2.18490e-3	
                                                     117.8	      6.21014e-3	
                                                     121.3	      1.53927e-2	
                                                     124.8	      3.62653e-2	
                                                     127.1	      6.21518e-2	
                                                     128.4	      8.35719e-2	
                                                     130.5	      1.33152e-1	
                                                     132.4	      2.00665e-1	
                                                     133.9	      2.75700e-1	
                                                     136.6	      4.77366e-1	
                                                     139.8	      9.02249e-1	
                                                     143.3	      1.74071e+0	
                                                     147.2	      3.44291e+0	
                                                     151.0	      6.74698e+0	
                                                     155.2	      1.33941e+1	
                                                     158.8	      2.35055e+1	
                                                     162.0	      3.81696e+1	
                                                     166.0	      6.85050e+1	
                                                     170.3	      1.23068e+2	
                                                     173.4	      1.85110e+2	
                                                     176.8	      2.88301e+2	
                                                     180.2	      4.38893e+2	
                                                     181.7	      5.19492e+2	
                                                     186.1	      8.80604e+2	
                                                     191.0	      1.52154e+3	
                                                     193.9	      2.08830e+3	
                                                     198.4	      3.32317e+3	
                                                     201.8	      4.63020e+3	
                                                     205.0	      6.34136e+3	
                                                     210.5	      1.05520e+4	
                                                     216.2	      1.72929e+4	
                                                     219.8	      2.35760e+4	
                                                     223.0	      3.04814e+4	
                                                     226.8	      4.11252e+4	
                                                     230.0	      1.19806e+7	
                                                     234.0	      4.55963e+7	
                                                     240.0	      6.71181e+7	
                                                     246.5	      1.02090e+8	
                                                     252.4	      1.94439e+8	
                                                     256.8	      3.08235e+8	
                                                     260.0	      4.24785e+8	
                                                     264.0	      3.15924e+9	
                                                     268.5	      4.11303e+9	
                                                     273.5	      5.14513e+9	
                                                     278.5	      3.12357e+9	
                                                     284.0	      7.58544e+9	
                                                     290.0	     1.15178e+10	
                                                     296.0	      8.01309e+9	
                                                     301.0	      7.05427e+9	
                                                     308.0	     2.35572e+10	
                                                     318.0	      8.92092e+9	
                                                     328.0	     1.41701e+10	
                                                     338.0	     1.06855e+10	
                                                     348.0	     1.17094e+10	
                                                     357.0	     3.08244e+10	
                                                     366.0	     6.03024e+10	
                                                     375.0	     7.73339e+10	
                                                     385.0	     7.02681e+10	
                                                     395.0	     1.09792e+11	
                                                     405.0	     1.56154e+11	
                                                     414.0	     1.45640e+11	
                                                     422.0	     1.36847e+11	
                                                     430.0	     1.25238e+11	
                                                     441.0	     1.45049e+11	
                                                     451.0	     1.49891e+11	
                                                     460.0	     1.24335e+11	
                                                     470.0	     1.31274e+11	
                                                     480.0	     1.46779e+11	
                                                     490.0	     1.12726e+11	
                                                     500.0	     1.47671e+11	
                                                     506.0	     1.18104e+11	
                                                     512.0	     1.92372e+11	
                                                     520.0	     1.76202e+11	
                                                     530.0	     1.59262e+11	
                                                     540.0	     1.36235e+11	
                                                     550.0	     1.22818e+11	
                                                     560.0	     1.60927e+11	
                                                     570.0	     1.74660e+11	
                                                     580.0	     1.66751e+11	
                                                     590.0	     1.66829e+11	
                                                     600.0	     1.39244e+11	
                                                     610.0	     1.33167e+11	
                                                     620.0	     1.63119e+11	
                                                     630.0	     1.51195e+11	
                                                     640.0	     1.62299e+11	
                                                     650.0	     1.51138e+11	
                                                     658.0	     1.32963e+11	
                                                     665.0	     1.51382e+11	
                                                     675.0	     1.56546e+11	
                                                     685.0	     1.35453e+11	
                                                     695.0	     1.49210e+11	
                                                     705.0	     1.27877e+11	
                                                     716.0	     1.47075e+11	
                                                     726.0	     1.46253e+11	
                                                     735.0	     1.44925e+11	
                                                     745.0	     1.36119e+11	
                                                     755.0	     1.32755e+11	
                                                     765.0	     1.22464e+11	
                                                     775.0	     1.27936e+11	
                                                     785.0	     1.17538e+11	
                                                     795.0	     1.23583e+11	
                                                     805.0	     1.22078e+11	
                                                     815.0	     1.20677e+11	
                                                     825.0	     1.19961e+11	
                                                     835.0	     1.05078e+11	
                                                     845.0	     1.14028e+11	
                                                     855.0	     1.09145e+11	
                                                     865.0	     1.11379e+11	
                                                     875.0	     1.09837e+11	
                                                     885.0	     1.06902e+11	
                                                     895.0	     1.05067e+11	
                                                     905.0	     1.01277e+11	
                                                     915.0	     7.61988e+10	
                                                     925.0	     1.21879e+11	
                                                     935.0	     1.62241e+11	
                                                     945.0	     1.92680e+11	
                                                     955.0	     2.14557e+11	
                                                     965.0	     2.38763e+11	
                                                     975.0	     1.68002e+11	
                                                     985.0	     2.12136e+11	
                                                     995.0	     1.87219e+11	
                                                    1005.0	     1.89733e+11	
                                                    1015.0	     1.93809e+11	
                                                    1025.0	     1.62303e+11	
                                                    1035.0	     1.94652e+11	
                                                    1045.0	     2.00970e+11	
                                                    1055.0	     1.94629e+11	
                                                    1065.0	     1.80742e+11	
                                                    1075.0	     1.82320e+11	
                                                    1085.0	     1.65262e+11	
                                                    1095.0	     1.73330e+11	
                                                    1105.0	     1.66579e+11	
                                                    1115.0	     1.63589e+11	
                                                    1125.0	     1.53862e+11	
                                                    1135.0	     1.57693e+11	
                                                    1145.0	     1.55419e+11	
                                                    1155.0	     1.45403e+11	
                                                    1165.0	     1.37055e+11	
                                                    1175.0	     1.18706e+11	
                                                    1185.0	     1.29551e+11	
                                                    1195.0	     1.23715e+11	
                                                    1205.0	     1.20713e+11	
                                                    1215.0	     9.74475e+10	
                                                    1225.0	     1.13223e+11	
                                                    1235.0	     1.13074e+11	
                                                    1245.0	     1.10093e+11	
                                                    1255.0	     1.10381e+11	
                                                    1265.0	     1.10270e+11	
                                                    1275.0	     1.10042e+11	
                                                    1285.0	     1.08434e+11	
                                                    1295.0	     1.06098e+11	
                                                    1305.0	     1.02477e+11	
                                                    1315.0	     1.02039e+11	
                                                    1325.0	     9.95674e+10	
                                                    1335.0	     9.75126e+10	
                                                    1345.0	     9.56599e+10	
                                                    1355.0	     9.17272e+10	
                                                    1365.0	     8.81600e+10	
                                                    1375.0	     8.48140e+10	
                                                    1385.0	     8.38999e+10	
                                                    1395.0	     7.99855e+10	
                                                    1405.0	     7.63128e+10	
                                                    1415.0	     8.12683e+10	
                                                    1425.0	     7.48051e+10	
                                                    1435.0	     7.72733e+10	
                                                    1442.0	     7.42313e+10	
                                                    1447.0	     7.39783e+10	
                                                    1455.0	     7.14888e+10	
                                                    1465.0	     7.08832e+10	
                                                    1475.0	     6.97644e+10	
                                                    1485.0	     6.99179e+10	
                                                    1495.0	     6.77399e+10	
                                                    1505.0	     6.70774e+10	
                                                    1512.0	     6.64907e+10	
                                                    1517.0	     6.51116e+10	
                                                    1525.0	     6.42212e+10	
                                                    1535.0	     5.92285e+10	
                                                    1545.0	     5.04326e+10	
                                                    1555.0	     5.11992e+10	
                                                    1565.0	     5.49094e+10	
                                                    1575.0	     5.57572e+10	
                                                    1585.0	     5.46884e+10	
                                                    1595.0	     5.44669e+10	
                                                    1605.0	     5.16668e+10	
                                                    1615.0	     4.99370e+10	
                                                    1625.0	     5.00533e+10	
                                                    1635.0	     4.92514e+10	
                                                    1645.0	     4.73192e+10	
                                                    1655.0	     4.89099e+10	
                                                    1665.0	     4.79014e+10	
                                                    1672.0	     4.53544e+10	
                                                    1677.0	     4.87148e+10	
                                                    1685.0	     4.75873e+10	
                                                    1695.0	     4.67466e+10	
                                                    1705.0	     4.54171e+10	
                                                    1715.0	     4.35326e+10	
                                                    1725.0	     4.26889e+10	
                                                    1735.0	     4.34798e+10	
                                                    1745.0	     4.28023e+10	
                                                    1755.0	     4.17383e+10	
                                                    1765.0	     4.10527e+10	
                                                    1775.0	     4.00918e+10	
                                                    1785.0	     3.99890e+10	
                                                    1795.0	     3.87976e+10	
                                                    1805.0	     3.81990e+10	
                                                    1815.0	     3.74989e+10	
                                                    1825.0	     3.66931e+10	
                                                    1835.0	     3.63582e+10	
                                                    1845.0	     3.58078e+10	
                                                    1855.0	     3.52871e+10	
                                                    1865.0	     3.47831e+10	
                                                    1875.0	     3.38622e+10	
                                                    1885.0	     3.32092e+10	
                                                    1895.0	     3.32056e+10	
                                                    1905.0	     3.27086e+10	
                                                    1915.0	     3.21285e+10	
                                                    1925.0	     3.06874e+10	
                                                    1935.0	     3.11871e+10	
                                                    1945.0	     3.07437e+10	
                                                    1955.0	     2.96316e+10	
                                                    1967.0	     2.94961e+10	
                                                    1976.0	     2.90543e+10	
                                                    1984.0	     2.88042e+10	
                                                    1995.0	     2.82101e+10	
                                                    2005.0	     2.79050e+10	
                                                    2015.0	     2.74302e+10	
                                                    2025.0	     2.69799e+10	
                                                    2035.0	     2.64525e+10	
                                                    2045.0	     2.59106e+10	
                                                    2055.0	     1.91718e+10	
                                                    2065.0	     1.82569e+10	
                                                    2074.0	     1.84911e+10	
                                                    2078.0	     1.88231e+10	
                                                    2085.0	     1.98711e+10	
                                                    2095.0	     2.20312e+10	
                                                    2105.0	     2.32405e+10	
                                                    2115.0	     2.33185e+10	
                                                    2125.0	     2.27976e+10	
                                                    2135.0	     2.25630e+10	
                                                    2145.0	     2.22115e+10	
