# Kurucz ODFNEW /NOVER models
# teff = 44000 K (value for the effective temperature for the model. Temperatures are given in K)
# logg = 4.50 log(cm/s2) (value for Log(G) for the model.)
# meta = 0.00  (value for the Metallicity for the model.)
# lh = 1.25  (l/Hp where l is the  mixing length of the convective element and Hp is the pressure scale height)
# vtur = 2.0 km/s (Microturbulence velocity)
#
#                                               WAVELENGTH	#           FLUX	
#                                               (ANGSTROM)	#  (ERG/CM2/S/A)	
##########################################################	################	
     fn:data/fp00k2odfnew.pck.teff=44000..logg=4.50000.dat	                	
                                                      90.9	      2.44399e-6	
                                                      93.5	      7.36848e-6	
                                                      96.1	      2.05987e-5	
                                                      97.7	      3.86370e-5	
                                                      99.6	      7.81058e-5	
                                                     102.0	      1.83042e-4	
                                                     103.8	      3.38139e-4	
                                                     105.6	      6.11649e-4	
                                                     107.7	      1.19080e-3	
                                                     110.4	      2.70081e-3	
                                                     114.0	      7.57315e-3	
                                                     117.8	      2.09771e-2	
                                                     121.3	      5.08805e-2	
                                                     124.8	      1.17046e-1	
                                                     127.1	      1.97532e-1	
                                                     128.4	      2.63972e-1	
                                                     130.5	      4.13690e-1	
                                                     132.4	      6.14233e-1	
                                                     133.9	      8.35231e-1	
                                                     136.6	      1.41485e+0	
                                                     139.8	      2.61806e+0	
                                                     143.3	      4.90715e+0	
                                                     147.2	      9.31434e+0	
                                                     151.0	      1.79220e+1	
                                                     155.2	      3.44228e+1	
                                                     158.8	      5.88981e+1	
                                                     162.0	      9.70551e+1	
                                                     166.0	      1.69498e+2	
                                                     170.3	      2.91828e+2	
                                                     173.4	      4.27054e+2	
                                                     176.8	      6.54048e+2	
                                                     180.2	      9.75354e+2	
                                                     181.7	      1.12822e+3	
                                                     186.1	      1.88108e+3	
                                                     191.0	      3.13520e+3	
                                                     193.9	      4.27822e+3	
                                                     198.4	      6.61570e+3	
                                                     201.8	      8.90575e+3	
                                                     205.0	      1.21360e+4	
                                                     210.5	      1.95770e+4	
                                                     216.2	      3.10297e+4	
                                                     219.8	      4.17122e+4	
                                                     223.0	      5.27131e+4	
                                                     226.8	      6.96823e+4	
                                                     230.0	      2.06725e+7	
                                                     234.0	      7.94522e+7	
                                                     240.0	      1.14020e+8	
                                                     246.5	      2.17009e+8	
                                                     252.4	      7.02063e+8	
                                                     256.8	      1.66919e+9	
                                                     260.0	      1.92612e+9	
                                                     264.0	     1.18215e+10	
                                                     268.5	     1.45514e+10	
                                                     273.5	     1.79576e+10	
                                                     278.5	     1.09115e+10	
                                                     284.0	     2.40893e+10	
                                                     290.0	     3.83575e+10	
                                                     296.0	     2.85923e+10	
                                                     301.0	     1.92550e+10	
                                                     308.0	     3.69224e+10	
                                                     318.0	     1.13663e+10	
                                                     328.0	     1.68917e+10	
                                                     338.0	     1.16580e+10	
                                                     348.0	     1.25023e+10	
                                                     357.0	     3.45046e+10	
                                                     366.0	     7.30675e+10	
                                                     375.0	     9.47419e+10	
                                                     385.0	     7.94966e+10	
                                                     395.0	     1.34899e+11	
                                                     405.0	     2.06279e+11	
                                                     414.0	     1.97784e+11	
                                                     422.0	     1.81207e+11	
                                                     430.0	     1.68736e+11	
                                                     441.0	     2.06360e+11	
                                                     451.0	     2.10683e+11	
                                                     460.0	     1.74115e+11	
                                                     470.0	     1.89968e+11	
                                                     480.0	     2.15655e+11	
                                                     490.0	     1.63449e+11	
                                                     500.0	     2.34055e+11	
                                                     506.0	     1.78775e+11	
                                                     512.0	     2.43662e+11	
                                                     520.0	     2.24923e+11	
                                                     530.0	     2.04513e+11	
                                                     540.0	     1.68379e+11	
                                                     550.0	     1.40580e+11	
                                                     560.0	     1.87656e+11	
                                                     570.0	     2.17411e+11	
                                                     580.0	     2.11457e+11	
                                                     590.0	     2.10324e+11	
                                                     600.0	     1.75431e+11	
                                                     610.0	     1.52039e+11	
                                                     620.0	     1.96392e+11	
                                                     630.0	     1.75902e+11	
                                                     640.0	     1.99227e+11	
                                                     650.0	     1.83951e+11	
                                                     658.0	     1.61285e+11	
                                                     665.0	     1.87085e+11	
                                                     675.0	     1.90066e+11	
                                                     685.0	     1.65738e+11	
                                                     695.0	     1.81500e+11	
                                                     705.0	     1.55513e+11	
                                                     716.0	     1.75830e+11	
                                                     726.0	     1.76573e+11	
                                                     735.0	     1.73433e+11	
                                                     745.0	     1.63052e+11	
                                                     755.0	     1.58260e+11	
                                                     765.0	     1.40302e+11	
                                                     775.0	     1.52066e+11	
                                                     785.0	     1.32535e+11	
                                                     795.0	     1.44743e+11	
                                                     805.0	     1.45332e+11	
                                                     815.0	     1.42996e+11	
                                                     825.0	     1.41593e+11	
                                                     835.0	     1.24638e+11	
                                                     845.0	     1.34151e+11	
                                                     855.0	     1.26394e+11	
                                                     865.0	     1.30557e+11	
                                                     875.0	     1.29022e+11	
                                                     885.0	     1.24723e+11	
                                                     895.0	     1.22149e+11	
                                                     905.0	     1.17542e+11	
                                                     915.0	     8.89062e+10	
                                                     925.0	     1.39557e+11	
                                                     935.0	     1.77914e+11	
                                                     945.0	     1.94768e+11	
                                                     955.0	     2.15466e+11	
                                                     965.0	     2.24098e+11	
                                                     975.0	     1.75607e+11	
                                                     985.0	     2.00475e+11	
                                                     995.0	     1.78661e+11	
                                                    1005.0	     1.79267e+11	
                                                    1015.0	     1.82126e+11	
                                                    1025.0	     1.67061e+11	
                                                    1035.0	     1.86001e+11	
                                                    1045.0	     1.88602e+11	
                                                    1055.0	     1.83528e+11	
                                                    1065.0	     1.73521e+11	
                                                    1075.0	     1.74796e+11	
                                                    1085.0	     1.62309e+11	
                                                    1095.0	     1.65865e+11	
                                                    1105.0	     1.61448e+11	
                                                    1115.0	     1.58059e+11	
                                                    1125.0	     1.51389e+11	
                                                    1135.0	     1.53292e+11	
                                                    1145.0	     1.51649e+11	
                                                    1155.0	     1.43499e+11	
                                                    1165.0	     1.35609e+11	
                                                    1175.0	     1.21588e+11	
                                                    1185.0	     1.29533e+11	
                                                    1195.0	     1.22852e+11	
                                                    1205.0	     1.20832e+11	
                                                    1215.0	     1.03728e+11	
                                                    1225.0	     1.14067e+11	
                                                    1235.0	     1.10594e+11	
                                                    1245.0	     1.07009e+11	
                                                    1255.0	     1.08640e+11	
                                                    1265.0	     1.08198e+11	
                                                    1275.0	     1.07409e+11	
                                                    1285.0	     1.05541e+11	
                                                    1295.0	     1.04512e+11	
                                                    1305.0	     1.00273e+11	
                                                    1315.0	     9.89480e+10	
                                                    1325.0	     9.67391e+10	
                                                    1335.0	     9.48028e+10	
                                                    1345.0	     9.30172e+10	
                                                    1355.0	     8.89490e+10	
                                                    1365.0	     8.50868e+10	
                                                    1375.0	     8.14863e+10	
                                                    1385.0	     8.17396e+10	
                                                    1395.0	     7.88451e+10	
                                                    1405.0	     7.48069e+10	
                                                    1415.0	     8.01750e+10	
                                                    1425.0	     7.48051e+10	
                                                    1435.0	     7.66824e+10	
                                                    1442.0	     7.30645e+10	
                                                    1447.0	     7.29599e+10	
                                                    1455.0	     7.08287e+10	
                                                    1465.0	     7.01880e+10	
                                                    1475.0	     6.94041e+10	
                                                    1485.0	     6.94020e+10	
                                                    1495.0	     6.73202e+10	
                                                    1505.0	     6.63953e+10	
                                                    1512.0	     6.59271e+10	
                                                    1517.0	     6.41967e+10	
                                                    1525.0	     6.39994e+10	
                                                    1535.0	     5.97082e+10	
                                                    1545.0	     5.10199e+10	
                                                    1555.0	     5.17727e+10	
                                                    1565.0	     5.57554e+10	
                                                    1575.0	     5.64908e+10	
                                                    1585.0	     5.51249e+10	
                                                    1595.0	     5.49157e+10	
                                                    1605.0	     5.24157e+10	
                                                    1615.0	     5.09467e+10	
                                                    1625.0	     5.08850e+10	
                                                    1635.0	     5.04110e+10	
                                                    1645.0	     4.80891e+10	
                                                    1655.0	     4.94861e+10	
                                                    1665.0	     4.86080e+10	
                                                    1672.0	     4.62937e+10	
                                                    1677.0	     4.89840e+10	
                                                    1685.0	     4.81098e+10	
                                                    1695.0	     4.74784e+10	
                                                    1705.0	     4.59744e+10	
                                                    1715.0	     4.39028e+10	
                                                    1725.0	     4.34447e+10	
                                                    1735.0	     4.42293e+10	
                                                    1745.0	     4.34429e+10	
                                                    1755.0	     4.24575e+10	
                                                    1765.0	     4.17446e+10	
                                                    1775.0	     4.08737e+10	
                                                    1785.0	     4.06228e+10	
                                                    1795.0	     3.94641e+10	
                                                    1805.0	     3.88591e+10	
                                                    1815.0	     3.80593e+10	
                                                    1825.0	     3.74024e+10	
                                                    1835.0	     3.69410e+10	
                                                    1845.0	     3.64775e+10	
                                                    1855.0	     3.58564e+10	
                                                    1865.0	     3.53656e+10	
                                                    1875.0	     3.45160e+10	
                                                    1885.0	     3.38792e+10	
                                                    1895.0	     3.38280e+10	
                                                    1905.0	     3.32836e+10	
                                                    1915.0	     3.27316e+10	
                                                    1925.0	     3.13859e+10	
                                                    1935.0	     3.17252e+10	
                                                    1945.0	     3.12378e+10	
                                                    1955.0	     3.03324e+10	
                                                    1967.0	     3.00149e+10	
                                                    1976.0	     2.95030e+10	
                                                    1984.0	     2.93019e+10	
                                                    1995.0	     2.87118e+10	
                                                    2005.0	     2.83511e+10	
                                                    2015.0	     2.78784e+10	
                                                    2025.0	     2.74411e+10	
                                                    2035.0	     2.69019e+10	
                                                    2045.0	     2.63241e+10	
                                                    2055.0	     1.97820e+10	
                                                    2065.0	     1.90069e+10	
                                                    2074.0	     1.94817e+10	
                                                    2078.0	     1.99913e+10	
                                                    2085.0	     2.15385e+10	
                                                    2095.0	     2.36783e+10	
                                                    2105.0	     2.37982e+10	
                                                    2115.0	     2.37026e+10	
                                                    2125.0	     2.32239e+10	
                                                    2135.0	     2.29845e+10	
                                                    2145.0	     2.26103e+10	
