# TLUSTY OSTAR2002+BSTAR2006
# teff = 32500 K (value for the effective temperature for the model. Temperatures are given in K)
# logg = 4.75 log(cm/s2) (value for Log(G) for the model.)
# z = 1  (Z/Z0)
#
#         WAVELENGTH	#                   FLUX	
#         (ANGSTROM)	#          (ERG/CM2/S/A)	
####################	########################	
     44.882873414538	     2.7638864104253E-41	
     44.907816823029	     2.9035914062417E-41	
     44.932787971259	     3.1022625661106E-41	
     44.957786905528	     3.3145030480755E-41	
     44.982746177196	     3.5413010775928E-41	
     45.007733177599	     3.7835833906565E-41	
     45.032747952971	     4.0424674683814E-41	
      45.05779054965	     4.3190470925573E-41	
     45.082793218463	     4.6145546199025E-41	
      45.10789152167	     4.9302686802995E-41	
      45.13294983914	     5.2675915005314E-41	
     45.158036012858	     5.6280057611146E-41	
     45.183081991723	     6.0130930623376E-41	
     45.208223941659	     6.4244852607479E-41	
     45.233325638345	     6.8640633121033E-41	
     45.258455225762	     7.3336993178044E-41	
     45.283612750422	     7.8354585029527E-41	
     45.308798258938	     8.3715617312425E-41	
     45.333943244952	     8.9443566584148E-41	
     45.359184785076	     9.5563023502677E-41	
     45.384385743676	     1.0210137633633E-40	
     45.409614720477	     1.0908707038522E-40	
     45.434802903778	     1.1655104976161E-40	
     45.460087980675	     1.2452526947505E-40	
     45.485332204516	     1.3304531746485E-40	
     45.510604480433	     1.4214826676421E-40	
     45.535904855209	     1.5187391479482E-40	
     45.561233375735	     1.6226496065076E-40	
     45.586520769912	     1.7336733416305E-40	
     45.611836249694	     1.8522885215545E-40	
     45.637179861898	      1.979019114847E-40	
     45.662551653443	     2.1144264251226E-40	
     45.687951671355	     2.2590944351767E-40	
     45.713310257544	     2.4136658755373E-40	
     45.738766792027	      2.578794984062E-40	
     45.764181834002	      2.755234373272E-40	
      45.78955519781	     2.9437556290802E-40	
     45.815026728651	      3.145161633252E-40	
     45.840456520044	     3.3603592481494E-40	
     45.865984728293	     3.5902664277307E-40	
     45.891471135712	     3.8359095481155E-40	
     45.916985883005	     4.0983682001349E-40	
     45.942458611669	     4.3787763438937E-40	
     45.968030102304	     4.6783660558194E-40	
     45.993559512376	     4.9984708452151E-40	
     46.019117294904	     5.3404660207126E-40	
     46.044703497212	      5.705858292586E-40	
      46.07024736872	     6.0962549071706E-40	
     46.095890474148	     6.5133426989274E-40	
     46.121491186235	     6.9589996436869E-40	
     46.147120350345	     7.4351262778828E-40	
     46.172778013935	     7.9438274007628E-40	
     46.198393032158	     8.4873654742177E-40	
     46.224107758229	     9.0680393916751E-40	
      46.24977977578	     9.6884886416971E-40	
     46.275480324708	     1.0351366199126E-39	
     46.301209452603	     1.1059602434195E-39	
      46.32689561815	     1.1816308705131E-39	
     46.352681967456	       1.26247556787E-39	
     46.378425290646	     1.3488555195038E-39	
     46.404197224346	     1.4411435814504E-39	
     46.429997816279	     1.5397459817839E-39	
     46.455755126455	     1.6450966122519E-39	
     46.481613098284	     1.7576525461003E-39	
     46.507427723964	     1.8779030775317E-39	
     46.533271039062	     2.0063910003688E-39	
     46.559143091431	      2.143679063535E-39	
     46.584971540186	     2.2903518975156E-39	
     46.610901130475	     2.4470399613358E-39	
     46.636787052132	     2.6133773390363E-39	
     46.662701741879	     2.7852579952356E-39	
     46.688645247699	     2.9686250026846E-39	
     46.714617617682	     3.1640778327394E-39	
     46.740546026876	     3.3723961162001E-39	
     46.766503234583	     3.5944396377634E-39	
     46.792489288808	     3.8310906288652E-39	
     46.818504237665	     4.0833303653653E-39	
     46.844548129374	     4.3521699292743E-39	
     46.870547733178	     4.6387159746735E-39	
     46.896576213546	     4.9441286704167E-39	
     46.922633618612	     5.2696439716181E-39	
     46.948719996617	     5.6165946764594E-39	
     46.974835395912	     5.9863757190295E-39	
     47.000906177686	     6.3805320192746E-39	
     47.027079682944	     6.8005938625662E-39	
     47.053208503692	     7.2483516441184E-39	
     47.079366375567	     7.7255774169313E-39	
     47.105479331519	     8.2342336365765E-39	
     47.131695368778	     8.7763505300623E-39	
     47.157866422534	     9.3541879631314E-39	
     47.184066556704	     9.9700686755641E-39	
     47.210295819784	     1.0626482567065E-38	
     47.236554260378	     1.1326110642577E-38	
     47.262767416563	     1.2071828234366E-38	
     47.289009682029	     1.2866645489038E-38	
     47.315355781599	     1.3713733801618E-38	
     47.341581734975	     1.4616675015263E-38	
     47.367911619808	      1.557901037062E-38	
     47.394270808632	     1.6604688872969E-38	
     47.420584341323	     1.7697871958605E-38	
     47.446927109052	     1.8863199963133E-38	
     47.473299160566	     2.0105140260088E-38	
     47.499700544723	     2.1428774045518E-38	
     47.526055967381	     2.2839731824304E-38	
     47.552516079912	     2.4343405999859E-38	
     47.578930161325	     2.5946119316731E-38	
     47.605373603601	     2.7654442983626E-38	
     47.631846455723	     2.9475156018336E-38	
     47.658273003882	     3.1415769428502E-38	
      47.68472889166	     3.3484236185074E-38	
      47.71129009926	     3.5688777427603E-38	
     47.737804897468	     3.8038405001424E-38	
     47.764273082132	     4.0542883895431E-38	
     47.790846818354	     4.3212156493924E-38	
     47.817373870131	     4.6057295013777E-38	
       47.8440067411	     4.9089592432248E-38	
     47.870592856595	     5.2321534726344E-38	
     47.897132011203	     5.5766593582782E-38	
      47.92377721757	     5.9438130897785E-38	
     47.950452085929	     6.3351267645982E-38	
     47.977079885928	     6.7522414012069E-38	
     48.003737276208	     7.1967992226744E-38	
     48.030424306121	     7.6706334151206E-38	
     48.057063988997	     8.1756764746993E-38	
     48.083810360894	     8.7139381323595E-38	
     48.110509313421	      9.287670153502E-38	
      48.13723793207	     9.8991639642775E-38	
     48.163996266313	     1.0550905141717E-37	
     48.190784365732	     1.1245562446599E-37	
     48.217524728589	      1.198597670113E-37	
     48.244372421162	     1.2775105449096E-37	
     48.271172304081	     1.3616208451478E-37	
     48.298001978367	     1.4512687268083E-37	
     48.324783596886	     1.5468225716283E-37	
     48.351672916415	     1.6486554013562E-37	
     48.378514106452	     1.7572147954411E-37	
     48.405385113436	     1.8729101477277E-37	
     48.432285987079	     1.9962149519219E-37	
     48.459216777203	     2.1276486442741E-37	
     48.486177533741	     2.2677282644846E-37	
     48.513089801638	     2.4173604519164E-37	
     48.540031961452	     2.5718048972545E-37	
     48.567004063012	     2.7342071039823E-37	
      48.59400615626	     2.9068529873472E-37	
     48.621038291247	      3.090392724638E-37	
     48.648021575729	     3.2855478203489E-37	
     48.675113856845	     3.4930051808255E-37	
     48.702157212178	     3.7135546990833E-37	
     48.729230634195	     3.9480452803284E-37	
     48.756254879001	     4.1973620228087E-37	
     48.783388496724	     4.4623933922272E-37	
     48.810472861313	     4.7441573972697E-37	
     48.837587316895	     5.0437362624696E-37	
     48.864731913645	     5.3622050287291E-37	
      48.89190670185	     5.7008071156721E-37	
     48.919031907499	     6.0607842344615E-37	
     48.946267141012	     6.4434716007624E-37	
     48.973452715253	     6.8503401793618E-37	
     49.000668504919	      7.282903630993E-37	
     49.027914560414	     7.7427666692229E-37	
     49.055110663128	     8.2316944154627E-37	
     49.082417312547	     8.7514586728897E-37	
     49.109673931739	      9.304071352407E-37	
     49.136960840234	       9.89156211657E-37	
     49.164278088547	     1.0516165085333E-36	
     49.191625727309	      1.118018189103E-36	
     49.218923001149	     1.1886160249736E-36	
     49.246250587257	     1.2636718518452E-36	
     49.273689521928	     1.3434608295823E-36	
     49.300996898465	     1.4282961894518E-36	
     49.328415724939	     1.5184834050272E-36	
      49.35586506643	     1.6143719768941E-36	
     49.383263627274	     1.7162986886028E-36	
      49.41069262414	     1.8246776943521E-36	
     49.438152107771	     1.9399030944299E-36	
     49.465642129023	     2.0623825606648E-36	
     49.493162738867	      2.192614150543E-36	
      49.52063218856	     2.3310705991389E-36	
     49.548132147101	     2.4782694431471E-36	
     49.575662665346	     2.6347479313032E-36	
     49.603223794262	     2.8011173818209E-36	
     49.630815584932	     2.9779862892323E-36	
     49.658355833099	     3.1660319258373E-36	
     49.686009009337	      3.365943459621E-36	
     49.713610562501	     3.5784792972271E-36	
     49.741242799119	     3.8044384746699E-36	
     49.768823148563	     4.0446858320991E-36	
     49.796516813807	     4.3000732232052E-36	
     49.824158510622	     4.5716084879652E-36	
      49.85191380956	     4.8602680043358E-36	
     49.879617058659	     5.1671601003569E-36	
     49.907268032742	     5.4934506665901E-36	
     49.935032855013	     5.8403221397725E-36	
      49.96274532025	     6.2091151760305E-36	
       49.9905719212	     6.6011618079455E-36	
     50.018346082938	     7.0179911225902E-36	
     50.046151123813	     7.4611221754371E-36	
     50.073903457491	     7.9322793607425E-36	
     50.101770318216	     8.4331314301318E-36	
     50.129584388874	      8.965655247229E-36	
     50.157429358728	      9.531782645149E-36	
     50.185305279299	     1.0133657351884E-35	
     50.213212202218	     1.0773532716747E-35	
     50.241150179234	     1.1453800909619E-35	
     50.269034971226	     1.2177047850545E-35	
     50.296950733586	     1.2945964791144E-35	
     50.324897517936	     1.3763430100151E-35	
     50.352875376018	     1.4632501999855E-35	
     50.380884359686	     1.5556432353479E-35	
     50.408839760426	     1.6538735973629E-35	
     50.436911056863	     1.7583044523766E-35	
     50.464928685775	     1.8693402371275E-35	
     50.492977459489	     1.9873665532022E-35	
     50.520972291971	     2.1128684312301E-35	
     50.549083416516	     2.2462782997837E-35	
     50.577140514523	     2.3870683322175E-35	
     50.605314198034	     2.5311814861348E-35	
     50.633433769533	     2.6840447439362E-35	
     50.661584608495	       2.84613384091E-35	
     50.689681059539	     3.0180284931404E-35	
     50.717894494652	     3.2002757823197E-35	
      50.74605345566	     3.3935488302202E-35	
     50.774243702176	      3.598501153966E-35	
     50.802465286368	     3.8158079993862E-35	
     50.830718260522	     4.0462435424617E-35	
     50.858916396221	     4.2906074971919E-35	
     50.887232211512	     4.5497113410879E-35	
      50.91549310127	     4.8244791213794E-35	
      50.94378539858	     5.1158443004435E-35	
     50.972109155828	     5.4247795070491E-35	
     51.000377664063	     5.7524027819732E-35	
     51.028764402201	     6.0997840240793E-35	
     51.057095803437	     6.4681675814867E-35	
     51.085458681594	     6.8587901331541E-35	
     51.113853089158	     7.2729886275271E-35	
     51.142279078733	     7.7122090453055E-35	
      51.17073670304	     8.1779482172794E-35	
     51.199138575884	     8.6718262480981E-35	
     51.227571994662	      9.195543785887E-35	
     51.256037011961	     9.7508628208447E-35	
     51.284533680485	     1.0339723382507E-34	
     51.313062053053	     1.0964142361256E-34	
     51.341534256522	     1.1626295741054E-34	
     51.370038074415	      1.232843184071E-34	
     51.398661680974	     1.3072921562887E-34	
     51.427228983866	     1.3862398813622E-34	
     51.455739742063	     1.4699591947828E-34	
     51.484370545666	     1.5587323848188E-34	
      51.51294471412	     1.6528620268046E-34	
     51.541639230398	     1.7526732671661E-34	
      51.57027702089	     1.8585266219458E-34	
      51.59885784312	     1.9707704093687E-34	
     51.627559270721	      2.089779479075E-34	
     51.656292645944	     2.2159887866224E-34	
      51.68496891583	     2.3498189082318E-34	
     51.713677041862	     2.4917155451471E-34	
     51.742417077153	     2.6421998547543E-34	
     51.771189074934	     2.8017624746705E-34	
     51.799993088553	     2.9709619633263E-34	
     51.828739568728	     3.1503792075355E-34	
      51.85751797242	     3.3406420336181E-34	
     51.886328352836	      3.542384997585E-34	
       51.9151707633	     3.7563096020708E-34	
     51.944045257258	     3.9831559873555E-34	
     51.972861786504	     4.2237034008467E-34	
     52.001800507889	     4.4787680864433E-34	
     52.030681171293	     4.7492488894546E-34	
     52.059593931901	     5.0360653579909E-34	
     52.088538843251	     5.3401890127915E-34	
        52.117515959	     5.6626839554348E-34	
      52.14643462833	     6.0046718073984E-34	
     52.175385407928	     6.3673128818692E-34	
     52.204368351307	     6.7518358872407E-34	
     52.233383512095	     7.1595881112779E-34	
     52.262430944042	     7.5919519820262E-34	
     52.291510701017	     8.0504275111299E-34	
     52.320531525746	     8.5366201234424E-34	
     52.349584580407	     9.0521544513231E-34	
     52.378669918722	     9.5988249974562E-34	
      52.40778759453	     1.0178500254945E-33	
     52.436937661792	     1.0793177066101E-33	
     52.466120174588	      1.144497987278E-33	
     52.495243265013	     1.2136161458135E-33	
     52.524398704903	      1.286908934855E-33	
     52.553586548187	     1.3646225897808E-33	
     52.582806848916	     1.4470376296348E-33	
      52.61205966126	     1.5344251096359E-33	
     52.641252605351	     1.6270863697924E-33	
     52.670477964107	       1.72535138539E-33	
     52.699735791544	     1.8295536602989E-33	
     52.729026141802	     1.9400387027667E-33	
     52.758349069138	     2.0571910216781E-33	
     52.787704627932	      2.181433903076E-33	
     52.816999820298	     2.3106579510636E-33	
      52.84632754618	     2.4434357466707E-33	
     52.875781119097	     2.5841787826596E-33	
     52.905080815514	     2.7330620610269E-33	
     52.934506467778	     2.8904874822351E-33	
     52.963964871182	     3.0569988457366E-33	
     52.993362405584	     3.2330995433168E-33	
     53.022792592186	     3.4193495416628E-33	
     53.052255485419	      3.616316373451E-33	
     53.081751139834	     3.8246317849144E-33	
     53.111279610106	     4.0449513017773E-33	
     53.140746754398	     4.2779692509521E-33	
     53.170340915943	     4.5243854858572E-33	
     53.199873651559	     4.7850237880668E-33	
     53.229439212511	     5.0606579330962E-33	
     53.259037653559	     5.3521794452779E-33	
     53.288574308147	     5.6605091029889E-33	
     53.318238568659	     5.9865705561396E-33	
      53.34784094185	     6.3314297915001E-33	
     53.377476203872	     6.6961526803494E-33	
     53.407144409567	     7.0818862177439E-33	
     53.436845613897	     7.4898380393929E-33	
     53.466484516979	     7.9213043168886E-33	
     53.496251777751	     8.3775975168586E-33	
     53.525956635386	     8.8602027041455E-33	
     53.555694499774	     9.3706039491088E-33	
      53.58546542596	     9.9103852778976E-33	
      53.61526946911	     1.0481267517892E-32	
     53.645010691694	     1.1085068632254E-32	
     53.674881027834	     1.1723599295749E-32	
     53.704688440483	     1.2398950972534E-32	
     53.734528977584	     1.3113149845451E-32	
     53.764402694385	      1.386856495875E-32	
     53.794213118725	     1.4667502870914E-32	
     53.824153253678	     1.5512442893555E-32	
     53.854029992312	     1.6406063259173E-32	
     53.883939917357	     1.7351128960619E-32	
     53.913883084139	     1.8350574167179E-32	
     53.943859548105	     1.9407707811325E-32	
     53.973869364828	     2.0525694171721E-32	
     54.003815308791	     2.1708148524902E-32	
     54.033891889846	     2.2958568661618E-32	
     54.063904493116	     2.4281135409028E-32	
     54.093950455335	     2.5679772033475E-32	
     54.124029832154	     2.7159104417226E-32	
      54.15404485614	     2.8723712314603E-32	
     54.184191120654	     3.0378234314585E-32	
      54.21427292636	     3.2128214971091E-32	
     54.244388152062	      3.397898515199E-32	
     54.274536853482	     3.5936337938993E-32	
     54.304719086469	     3.8006422759338E-32	
     54.334934906996	     4.0195743293071E-32	
     54.365085784025	     4.2511309565801E-32	
     54.395270141544	     4.4960191261532E-32	
      54.42548803535	     4.7550198226427E-32	
     54.455739521366	     5.0289358171487E-32	
     54.486024655637	     5.3186169110944E-32	
     54.516343494335	     5.6249976868205E-32	
     54.546596847207	     5.9490300355603E-32	
     54.576883796375	     6.2917345672558E-32	
      54.60720439783	     6.6541716732667E-32	
     54.637558707693	     7.0374851584595E-32	
     54.667946782205	     7.4428765459569E-32	
     54.698368677737	     7.8716047341746E-32	
     54.728724540371	     8.3250663605906E-32	
       54.7591141148	      8.804644712406E-32	
     54.789537457212	     9.3118315249112E-32	
     54.819994623921	     9.8482495014926E-32	
     54.850485671368	     1.0415538860123E-31	
     54.881010656117	     1.1015519808158E-31	
     54.911469056114	     1.1650084258503E-31	
     54.941961283087	     1.2321197368098E-31	
     54.972487393417	     1.3030965314142E-31	
     55.003047443615	     1.3781571666127E-31	
     55.033641490315	     1.4575513249965E-31	
     55.064168451369	     1.5415182847429E-31	
     55.094830548812	     1.6303168090348E-31	
      55.12542544917	     1.7242270966848E-31	
     55.156054347926	     1.8235479496369E-31	
     55.186717301784	     1.9285947912171E-31	
     55.217414367572	     2.0396939366327E-31	
     55.248043786742	     2.1558698490797E-31	
     55.278809133956	     2.2739334221245E-31	
      55.30950672199	       2.39856136438E-31	
     55.340238423114	     2.5300184563159E-31	
     55.371004294224	     2.6686867257689E-31	
     55.401702009702	     2.8149568280751E-31	
     55.432536277976	     2.9692360495909E-31	
      55.46330227705	     3.1319836136332E-31	
     55.494102446393	     3.3036371833822E-31	
     55.525039681584	     3.4847031487169E-31	
     55.555805523846	     3.6757005050453E-31	
     55.586708546254	     3.8771539024579E-31	
     55.617645967526	      4.089649182946E-31	
     55.648514548239	     4.3137969556271E-31	
     55.679417412978	     4.5502355582047E-31	
     55.710354618891	     4.7996268129964E-31	
     55.741326223254	     5.0626779604825E-31	
     55.772332283467	     5.3401535054614E-31	
      55.80326898485	     5.6328474632871E-31	
     55.834344013767	     5.9415610016824E-31	
     55.865349567862	     6.2672115857264E-31	
     55.896389576683	     6.6106968344526E-31	
     55.927464097695	     6.9730153717607E-31	
     55.958573188487	     7.3551852395787E-31	
     55.989612339689	     7.7583328371858E-31	
     56.020790626839	     8.1835301322288E-31	
     56.051898857245	     8.6320678383733E-31	
      56.08304165552	     9.1051784239154E-31	
     56.114219079314	     9.6042012146088E-31	
     56.145326036879	     1.0130626755572E-30	
     56.176572768106	     1.0685850974861E-30	
     56.207748914908	     1.1271534203559E-30	
      56.23906518493	     1.1889276186998E-30	
     56.270310752067	     1.2540909536345E-30	
     56.301591057625	     1.3228296109718E-30	
     56.332800306663	     1.3953241158623E-30	
     56.364150145238	     1.4718003952324E-30	
     56.395428807916	     1.5524687540907E-30	
     56.426848411614	     1.6375518917003E-30	
     56.458196719768	     1.7273066344524E-30	
     56.489579878802	     1.8219826471154E-30	
     56.520891385909	     1.9218414927647E-30	
     56.552344302651	     2.0271693266398E-30	
     56.583725446896	     2.1382799394577E-30	
