# TLUSTY OSTAR2002+BSTAR2006
# teff = 32500 K (value for the effective temperature for the model. Temperatures are given in K)
# logg = 4 log(cm/s2) (value for Log(G) for the model.)
# z = 1  (Z/Z0)
#
#         WAVELENGTH	#                   FLUX	
#         (ANGSTROM)	#          (ERG/CM2/S/A)	
####################	########################	
     44.882873414538	     8.7503620424897E-41	
     44.907816823029	     9.1693412199824E-41	
     44.932787971259	     9.7634829935443E-41	
     44.957786905528	     1.0396136653094E-40	
     44.982746177196	     1.1069810095908E-40	
     45.007733177599	     1.1787123642334E-40	
     45.032747952971	     1.2550900412454E-40	
      45.05779054965	     1.3364173156717E-40	
     45.082793218463	     1.4230170228064E-40	
      45.10789152167	     1.5152238852889E-40	
      45.13294983914	     1.6134085383735E-40	
     45.158036012858	     1.7179545547916E-40	
     45.183081991723	     1.8292793438896E-40	
     45.208223941659	     1.9478135651912E-40	
     45.233325638345	     2.0740245111951E-40	
     45.258455225762	     2.2084303775006E-40	
     45.283612750422	     2.3515175534703E-40	
     45.308798258938	     2.5038986316865E-40	
     45.333943244952	     2.6661547827491E-40	
     45.359184785076	     2.8389140995406E-40	
     45.384385743676	     3.0228705985935E-40	
     45.409614720477	      3.218745291536E-40	
     45.434802903778	     3.4273107723056E-40	
     45.460087980675	     3.6493967687673E-40	
     45.485332204516	     3.8858707244402E-40	
     45.510604480433	     4.1376735021156E-40	
     45.535904855209	      4.405788299995E-40	
     45.561233375735	     4.6912663643648E-40	
     45.586520769912	     4.9952599121885E-40	
     45.611836249694	     5.3189599375623E-40	
     45.637179861898	     5.6636195238742E-40	
     45.662551653443	     6.0306124381971E-40	
     45.687951671355	     6.4213782927342E-40	
     45.713310257544	     6.8374790599902E-40	
     45.738766792027	     7.2805164357932E-40	
     45.764181834002	     7.7522940144838E-40	
      45.78955519781	     8.2546584793838E-40	
     45.815026728651	     8.7895384316341E-40	
     45.840456520044	     9.3590978297987E-40	
     45.865984728293	     9.9655264647697E-40	
     45.891471135712	     1.0611279455797E-39	
     45.916985883005	     1.1298856179771E-39	
     45.942458611669	     1.2031041851671E-39	
     45.968030102304	     1.2810607741975E-39	
     45.993559512376	     1.3640726904132E-39	
     46.019117294904	     1.4524623101335E-39	
     46.044703497212	     1.5465790677152E-39	
      46.07024736872	     1.6467989183797E-39	
     46.095890474148	     1.7535042975423E-39	
     46.121491186235	     1.8671350761954E-39	
     46.147120350345	     1.9881171874698E-39	
     46.172778013935	     2.1169379457729E-39	
     46.198393032158	     2.2541246647062E-39	
     46.224107758229	     2.4001818658796E-39	
      46.24977977578	     2.5557099662706E-39	
     46.275480324708	     2.7213205956508E-39	
     46.301209452603	     2.8976470474064E-39	
      46.32689561815	      3.085416987247E-39	
     46.352681967456	     3.2853443139014E-39	
     46.378425290646	     3.4982303034799E-39	
     46.404197224346	     3.7249134099483E-39	
     46.429997816279	     3.9662901341836E-39	
     46.455755126455	     4.2233008348995E-39	
     46.481613098284	      4.496965224941E-39	
     46.507427723964	     4.7883506540036E-39	
     46.533271039062	     5.0986361752665E-39	
     46.559143091431	     5.4290258102545E-39	
     46.584971540186	     5.7808227749226E-39	
     46.610901130475	     6.1553929970812E-39	
     46.636787052132	     6.5514658631248E-39	
     46.662701741879	     6.9590877204618E-39	
     46.688645247699	     7.3924586788923E-39	
     46.714617617682	     7.8528025882924E-39	
     46.740546026876	     8.3418291635268E-39	
     46.766503234583	      8.861312138828E-39	
     46.792489288808	     9.4131432036773E-39	
     46.818504237665	      9.999325602333E-39	
     46.844548129374	     1.0622007812901E-38	
     46.870547733178	     1.1283500834498E-38	
     46.896576213546	     1.1986176027913E-38	
     46.922633618612	     1.2732595980765E-38	
     46.948719996617	     1.3525499432471E-38	
     46.974835395912	     1.4367766100787E-38	
     47.000906177686	     1.5262514862615E-38	
     47.027079682944	     1.6212931251045E-38	
     47.053208503692	     1.7222530545226E-38	
     47.079366375567	      1.829510772698E-38	
     47.105479331519	     1.9434430103355E-38	
     47.131695368778	     2.0644560209295E-38	
     47.157866422534	     2.1930294194601E-38	
     47.184066556704	     2.3295881400098E-38	
     47.210295819784	     2.4746626392809E-38	
     47.236554260378	     2.6287640407898E-38	
     47.262767416563	     2.7924773628471E-38	
     47.289009682029	     2.9663684535797E-38	
     47.315355781599	     3.1510993190426E-38	
     47.341581734975	     3.3473350320959E-38	
     47.367911619808	     3.5557787812983E-38	
     47.394270808632	     3.7772036936552E-38	
     47.420584341323	      4.012432366552E-38	
     47.446927109052	     4.2622933202714E-38	
     47.473299160566	     4.5277227197072E-38	
     47.499700544723	     4.8096857965119E-38	
     47.526055967381	     5.1092095475876E-38	
     47.552516079912	     5.4273686652729E-38	
     47.578930161325	     5.7653475666768E-38	
     47.605373603601	     6.1243755276406E-38	
     47.631846455723	     6.5057586813468E-38	
     47.658273003882	     6.9109020169954E-38	
      47.68472889166	     7.3412789076421E-38	
      47.71129009926	     7.7984332059096E-38	
     47.737804897468	     8.2840570718335E-38	
     47.764273082132	     8.7999567799895E-38	
     47.790846818354	     9.3479537356745E-38	
     47.817373870131	     9.9301048480696E-38	
       47.8440067411	     1.0548453542885E-37	
     47.870592856595	     1.1205341275047E-37	
     47.897132011203	     1.1903171471822E-37	
      47.92377721757	     1.2644420458467E-37	
     47.950452085929	     1.3431809685371E-37	
     47.977079885928	     1.4268254435078E-37	
     48.003737276208	      1.515679996579E-37	
     48.030424306121	     1.6100664666094E-37	
     48.057063988997	      1.710331891507E-37	
     48.083810360894	     1.8168349507363E-37	
     48.110509313421	      1.929988769403E-37	
      48.13723793207	     2.0501715848221E-37	
     48.163996266313	     2.1778465370629E-37	
     48.190784365732	     2.3134584052624E-37	
     48.217524728589	     2.4575388294141E-37	
     48.244372421162	     2.6105614375037E-37	
     48.271172304081	     2.7731424419995E-37	
     48.298001978367	     2.9458226550379E-37	
     48.324783596886	     3.1292873909303E-37	
     48.351672916415	      3.324156986394E-37	
     48.378514106452	     3.5311536258414E-37	
     48.405385113436	     3.7510618584601E-37	
     48.432285987079	     3.9846565937078E-37	
     48.459216777203	     4.2327893635277E-37	
     48.486177533741	     4.4963718566276E-37	
     48.513089801638	     4.7769512745769E-37	
     48.540031961452	     5.0657577130347E-37	
     48.567004063012	      5.368400160082E-37	
      48.59400615626	     5.6891224585356E-37	
     48.621038291247	     6.0290100098799E-37	
     48.648021575729	     6.3892275897505E-37	
     48.675113856845	     6.7709214075503E-37	
     48.702157212178	      7.175458197375E-37	
     48.729230634195	     7.6041351776143E-37	
     48.756254879001	     8.0584647201024E-37	
     48.783388496724	     8.5398910873991E-37	
     48.810472861313	     9.0501147572318E-37	
     48.837587316895	     9.5908116422683E-37	
     48.864731913645	     1.0163802197583E-36	
      48.89190670185	     1.0771024518931E-36	
     48.919031907499	     1.1414555162861E-36	
     48.946267141012	     1.2096477512114E-36	
     48.973452715253	     1.2819186996792E-36	
     49.000668504919	     1.3585048575713E-36	
     49.027914560414	     1.4396672736448E-36	
     49.055110663128	     1.5256817382233E-36	
     49.082417312547	     1.6168346912652E-36	
     49.109673931739	     1.7134343312407E-36	
     49.136960840234	     1.8157924961694E-36	
     49.164278088547	     1.9242790977207E-36	
     49.191625727309	     2.0392467686681E-36	
     49.218923001149	      2.161069150283E-36	
     49.246250587257	     2.2901980463019E-36	
     49.273689521928	     2.4270038977959E-36	
     49.300996898465	     2.5720112899055E-36	
     49.328415724939	     2.7256791441391E-36	
      49.35586506643	     2.8885115181474E-36	
     49.383263627274	     3.0610895091006E-36	
      49.41069262414	     3.2439726141494E-36	
     49.438152107771	     3.4377883189214E-36	
     49.465642129023	     3.6431765992952E-36	
     49.493162738867	       3.86082059876E-36	
      49.52063218856	     4.0914906175069E-36	
     49.548132147101	     4.3359433889583E-36	
     49.575662665346	     4.5949900915865E-36	
     49.603223794262	     4.8695146985564E-36	
     49.630815584932	     5.1604276748336E-36	
     49.658355833099	     5.4687450388648E-36	
     49.686009009337	     5.7954554422158E-36	
     49.713610562501	     6.1417068378156E-36	
     49.741242799119	     6.5086323314322E-36	
     49.768823148563	     6.8975071735568E-36	
     49.796516813807	      7.309579064437E-36	
     49.824158510622	     7.7462877049169E-36	
      49.85191380956	     8.2090599950346E-36	
     49.879617058659	     8.6995100044477E-36	
     49.907268032742	     9.2192873051154E-36	
     49.935032855013	     9.7700751134927E-36	
      49.96274532025	     1.0353792294489E-35	
       49.9905719212	     1.0972339298415E-35	
     50.018346082938	     1.1627881252978E-35	
     50.046151123813	     1.2322573377946E-35	
     50.073903457491	     1.3058804143121E-35	
     50.101770318216	     1.3838972981506E-35	
     50.129584388874	     1.4665792522166E-35	
     50.157429358728	     1.5542009592343E-35	
     50.185305279299	     1.6470551297969E-35	
     50.213212202218	     1.7454525411487E-35	
     50.241150179234	     1.8497323785451E-35	
     50.269034971226	     1.9602388284889E-35	
     50.296950733586	      2.077361719556E-35	
     50.324897517936	       2.20146514875E-35	
     50.352875376018	     2.3330006722367E-35	
     50.380884359686	     2.4723732322114E-35	
     50.408839760426	     2.6200984757836E-35	
     50.436911056863	     2.7766193749262E-35	
     50.464928685775	     2.9425156152523E-35	
     50.492977459489	     3.1183077996515E-35	
     50.520972291971	     3.3046078198765E-35	
     50.549083416516	     3.5020362720819E-35	
     50.577140514523	     3.7097532262738E-35	
     50.605314198034	     3.9219617216352E-35	
     50.633433769533	     4.1463565686125E-35	
     50.661584608495	     4.3835880344318E-35	
     50.689681059539	     4.6344194609154E-35	
     50.717894494652	     4.8995646068125E-35	
      50.74605345566	      5.179898960461E-35	
     50.774243702176	     5.4762754565413E-35	
     50.802465286368	     5.7895878636197E-35	
     50.830718260522	      6.120842439771E-35	
     50.858916396221	     6.4710627300203E-35	
     50.887232211512	     6.8412903079682E-35	
      50.91549310127	     7.2327078013768E-35	
      50.94378539858	     7.6465416183298E-35	
     50.972109155828	     8.0840343337348E-35	
     51.000377664063	     8.5465821743841E-35	
     51.028764402201	     9.0355617974928E-35	
     51.057095803437	     9.5525319613996E-35	
     51.085458681594	     1.0099085562897E-34	
     51.113853089158	     1.0676909150843E-34	
     51.142279078733	      1.128778226461E-34	
      51.17073670304	      1.193359127213E-34	
     51.199138575884	      1.261638620582E-34	
     51.227571994662	     1.3338255757905E-34	
     51.256037011961	     1.4101403302438E-34	
     51.284533680485	     1.4908193861821E-34	
     51.313062053053	     1.5761110242292E-34	
     51.341534256522	     1.6663038077618E-34	
     51.370038074415	     1.7616328328693E-34	
     51.398661680974	     1.8624163496439E-34	
     51.427228983866	     1.9689756522515E-34	
     51.455739742063	     2.0816477610757E-34	
     51.484370545666	       2.20073893673E-34	
      51.51294471412	     2.3266535610559E-34	
     51.541639230398	     2.4597781085173E-34	
      51.57027702089	     2.6005150553992E-34	
      51.59885784312	     2.7493067191776E-34	
     51.627559270721	       2.90660178943E-34	
     51.656292645944	     3.0729023520606E-34	
      51.68496891583	     3.2487245582102E-34	
     51.713677041862	     3.4346033593902E-34	
     51.742417077153	     3.6311093316832E-34	
     51.771189074934	     3.8388666234954E-34	
     51.799993088553	     4.0584964862217E-34	
     51.828739568728	     4.2907162611505E-34	
      51.85751797242	     4.5362120696616E-34	
     51.886328352836	     4.7957500101221E-34	
       51.9151707633	     5.0701345593794E-34	
     51.944045257258	     5.3602223071029E-34	
     51.972861786504	     5.6669134054571E-34	
     52.001800507889	        5.9911436174E-34	
     52.030681171293	     6.3339229047459E-34	
     52.059593931901	     6.6963218072741E-34	
     52.088538843251	     7.0794532271858E-34	
        52.117515959	     7.4844942419733E-34	
      52.14643462833	     7.9127409614362E-34	
     52.175385407928	     8.3654732417595E-34	
     52.204368351307	     8.8441138954528E-34	
     52.233383512095	     9.3501205594294E-34	
     52.262430944042	     9.8850820234914E-34	
     52.291510701017	     1.0450648585924E-33	
     52.320531525746	      1.104859776946E-33	
     52.349584580407	      1.168075005406E-33	
     52.378669918722	     1.2349075363235E-33	
      52.40778759453	     1.3055616775593E-33	
     52.436937661792	     1.3802640792629E-33	
     52.466120174588	     1.4592293909988E-33	
     52.495243265013	     1.5427245107171E-33	
     52.524398704903	     1.6309885555126E-33	
     52.553586548187	     1.7243052569332E-33	
     52.582806848916	     1.8229570311736E-33	
      52.61205966126	     1.9272522010431E-33	
     52.641252605351	      2.037532001924E-33	
     52.670477964107	     2.1541090538322E-33	
     52.699735791544	     2.2773551463696E-33	
     52.729026141802	     2.4076538954359E-33	
     52.758349069138	     2.5454142050535E-33	
     52.787704627932	     2.6910430801136E-33	
     52.816999820298	     2.8422007062425E-33	
      52.84632754618	     2.9972806429964E-33	
     52.875781119097	     3.1611895596972E-33	
     52.905080815514	     3.3340786339309E-33	
     52.934506467778	     3.5164079656783E-33	
     52.963964871182	     3.7087202507742E-33	
     52.993362405584	     3.9115449737743E-33	
     53.022792592186	     4.1254768795583E-33	
     53.052255485419	     4.3510935441654E-33	
     53.081751139834	     4.5890500717435E-33	
     53.111279610106	     4.8400118754429E-33	
     53.140746754398	     5.1047127261433E-33	
     53.170340915943	     5.3838697462787E-33	
     53.199873651559	      5.678322292621E-33	
     53.229439212511	     5.9888640504064E-33	
     53.259037653559	     6.3163827078679E-33	
     53.288574308147	      6.661825304599E-33	
     53.318238568659	     7.0261443488207E-33	
      53.34784094185	     7.4104090489508E-33	
     53.377476203872	     7.8156776895114E-33	
     53.407144409567	     8.2431064509043E-33	
     53.436845613897	     8.6939121000249E-33	
     53.466484516979	     9.1693911588774E-33	
     53.496251777751	     9.6708432574075E-33	
     53.525956635386	     1.0199732145632E-32	
     53.555694499774	     1.0757559724427E-32	
      53.58546542596	     1.1345866589643E-32	
      53.61526946911	     1.1966356528974E-32	
     53.645010691694	     1.2620809842941E-32	
     53.674881027834	     1.3310996498913E-32	
     53.704688440483	     1.4038924056861E-32	
     53.734528977584	     1.4806701196581E-32	
     53.764402694385	     1.5616536928328E-32	
     53.794213118725	     1.6470558910057E-32	
     53.824153253678	     1.7371361253547E-32	
     53.854029992312	     1.8321372618934E-32	
     53.883939917357	     1.9323349472722E-32	
     53.913883084139	     2.0380223930983E-32	
     53.943859548105	     2.1494785022342E-32	
     53.973869364828	      2.267019670415E-32	
     54.003815308791	     2.3910081865111E-32	
     54.033891889846	     2.5217664256646E-32	
     54.063904493116	     2.6596754656319E-32	
     54.093950455335	     2.8051398971215E-32	
     54.124029832154	     2.9585452863807E-32	
      54.15404485614	     3.1203509016397E-32	
     54.184191120654	     3.2909935623713E-32	
      54.21427292636	      3.470978745695E-32	
     54.244388152062	       3.66080088305E-32	
     54.274536853482	     3.8610144821337E-32	
     54.304719086469	      4.072158698685E-32	
     54.334934906996	     4.2948594962165E-32	
     54.365085784025	     4.5297436098688E-32	
     54.395270141544	     4.7774802773909E-32	
      54.42548803535	     5.0387630315846E-32	
     54.455739521366	     5.3143202896192E-32	
     54.486024655637	     5.6049532156896E-32	
     54.516343494335	     5.9114719232205E-32	
     54.546596847207	     6.2347814064337E-32	
     54.576883796375	     6.5757523284025E-32	
      54.60720439783	     6.9353852811559E-32	
     54.637558707693	     7.3146635897983E-32	
     54.667946782205	     7.7146920512758E-32	
     54.698368677737	     8.1365955069393E-32	
     54.728724540371	     8.5815877748136E-32	
       54.7591141148	     9.0509184647641E-32	
     54.789537457212	     9.5459095844113E-32	
     54.819994623921	     1.0067952204444E-31	
     54.850485671368	     1.0618556136829E-31	
     54.881010656117	     1.1199261691975E-31	
     54.911469056114	     1.1811745219994E-31	
     54.941961283087	     1.2457730978569E-31	
     54.972487393417	     1.3139048687439E-31	
     55.003047443615	     1.3857656531343E-31	
     55.033641490315	      1.461544139198E-31	
     55.064168451369	     1.5414810100861E-31	
     55.094830548812	     1.6257743611655E-31	
      55.12542544917	     1.7146935828522E-31	
     55.156054347926	     1.8084648195596E-31	
     55.186717301784	     1.9073682745813E-31	
     55.217414367572	     2.0116828499619E-31	
     55.248043786742	     2.1205214480803E-31	
     55.278809133956	     2.2310669341459E-31	
      55.30950672199	     2.3474668313649E-31	
     55.340238423114	     2.4699392518512E-31	
     55.371004294224	      2.598807353206E-31	
     55.401702009702	      2.734390619151E-31	
     55.432536277976	     2.8770508596441E-31	
      55.46330227705	     3.0271518512928E-31	
     55.494102446393	     3.1850861073347E-31	
     55.525039681584	      3.351254180055E-31	
     55.555805523846	      3.526104352459E-31	
     55.586708546254	     3.7100572721861E-31	
     55.617645967526	     3.9036176425365E-31	
     55.648514548239	     4.1072785400728E-31	
     55.679417412978	     4.3215748260389E-31	
     55.710354618891	     4.5470404298365E-31	
     55.741326223254	     4.7842674109177E-31	
     55.772332283467	     5.0338571799221E-31	
      55.80326898485	     5.2965006424387E-31	
     55.834344013767	     5.5728153772779E-31	
     55.865349567862	     5.8635672988907E-31	
     55.896389576683	     6.1694829173183E-31	
     55.927464097695	     6.4913531567261E-31	
     55.958573188487	     6.8300133748019E-31	
     55.989612339689	     7.1863579254999E-31	
     56.020790626839	     7.5612700218845E-31	
     56.051898857245	     7.9557600096278E-31	
      56.08304165552	     8.3708237717127E-31	
     56.114219079314	     8.8075510512615E-31	
     56.145326036879	     9.2670851238314E-31	
     56.176572768106	     9.7505453475266E-31	
     56.207748914908	     1.0259268043702E-30	
      56.23906518493	     1.0794484918471E-30	
     56.270310752067	     1.1357658944917E-30	
     56.301591057625	     1.1950212498344E-30	
     56.332800306663	      1.257364686327E-30	
     56.364150145238	     1.3229661144399E-30	
     56.395428807916	     1.3919898494386E-30	
     56.426848411614	     1.4646150531953E-30	
     56.458196719768	     1.5410173443339E-30	
     56.489579878802	     1.6214146228049E-30	
     56.520891385909	     1.7060236307229E-30	
     56.552344302651	     1.7950176107587E-30	
     56.583725446896	     1.8886770628428E-30	
