# TLUSTY OSTAR2002+BSTAR2006
# teff = 37500 K (value for the effective temperature for the model. Temperatures are given in K)
# logg = 4.25 log(cm/s2) (value for Log(G) for the model.)
# z = 1  (Z/Z0)
#
#         WAVELENGTH	#                   FLUX	
#         (ANGSTROM)	#          (ERG/CM2/S/A)	
####################	########################	
     44.882873414538	     1.0635647801674E-31	
     44.907816823029	     1.1062172348237E-31	
     44.932787971259	      1.166236511906E-31	
     44.957786905528	     1.2295125637034E-31	
     44.982746177196	     1.2962242546676E-31	
     45.007733177599	     1.3665534383353E-31	
     45.032747952971	     1.4406994631095E-31	
      45.05779054965	     1.5188663168637E-31	
     45.082793218463	     1.6012785346882E-31	
      45.10789152167	     1.6881565530454E-31	
      45.13294983914	     1.7797501262413E-31	
     45.158036012858	      1.876309820045E-31	
     45.183081991723	     1.9781234699825E-31	
     45.208223941659	     2.0854526670298E-31	
     45.233325638345	     2.1986037076115E-31	
     45.258455225762	     2.3178817135532E-31	
     45.283612750422	     2.4436514357539E-31	
     45.308798258938	     2.5762392311025E-31	
     45.333943244952	     2.7160148064629E-31	
     45.359184785076	      2.863376921061E-31	
     45.384385743676	     3.0187370210866E-31	
     45.409614720477	     3.1825161828328E-31	
     45.434802903778	     3.3552066154735E-31	
     45.460087980675	     3.5372501064225E-31	
     45.485332204516	     3.7291634454679E-31	
     45.510604480433	     3.9315028301277E-31	
     45.535904855209	     4.1448138299416E-31	
     45.561233375735	     4.3696939150616E-31	
     45.586520769912	     4.6067880389957E-31	
     45.611836249694	     4.8567479470189E-31	
     45.637179861898	     5.1202529741072E-31	
     45.662551653443	      5.398069629615E-31	
     45.687951671355	     5.6909428121118E-31	
     45.713310257544	     5.9997223789862E-31	
     45.738766792027	     6.3252364414178E-31	
     45.764181834002	     6.6684363436203E-31	
      45.78955519781	     7.0302527785644E-31	
     45.815026728651	      7.411692796423E-31	
     45.840456520044	     7.8138446003417E-31	
     45.865984728293	      8.237772417389E-31	
     45.891471135712	     8.6847383463735E-31	
     45.916985883005	     9.1559437846555E-31	
     45.942458611669	     9.6527449901068E-31	
     45.968030102304	     1.0176458393767E-30	
     45.993559512376	      1.072860158007E-30	
     46.019117294904	     1.1310701796148E-30	
     46.044703497212	     1.1924397478014E-30	
      46.07024736872	     1.2571393570866E-30	
     46.095890474148	     1.3253468478611E-30	
     46.121491186235	     1.3972564466785E-30	
     46.147120350345	     1.4730674108766E-30	
     46.172778013935	     1.5529925191898E-30	
     46.198393032158	      1.637255666172E-30	
     46.224107758229	     1.7260860221248E-30	
      46.24977977578	     1.8197353808117E-30	
     46.275480324708	     1.9184671589913E-30	
     46.301209452603	     2.0225643871215E-30	
      46.32689561815	     2.1323136138056E-30	
     46.352681967456	     2.2479982056715E-30	
     46.378425290646	     2.3699615751282E-30	
     46.404197224346	     2.4985604787037E-30	
     46.429997816279	     2.6341216253701E-30	
     46.455755126455	     2.7770486269957E-30	
     46.481613098284	     2.9277179105409E-30	
     46.507427723964	     3.0865559639889E-30	
     46.533271039062	     3.2540306964151E-30	
     46.559143091431	     3.4305816549802E-30	
     46.584971540186	     3.6167270118254E-30	
     46.610901130475	     3.8129494759609E-30	
     46.636787052132	     4.0184060680881E-30	
     46.662701741879	     4.2282438262382E-30	
     46.688645247699	     4.4491699063639E-30	
     46.714617617682	     4.6816295203743E-30	
     46.740546026876	     4.9262535749466E-30	
     46.766503234583	      5.183658230596E-30	
     46.792489288808	     5.4545049807935E-30	
     46.818504237665	     5.7395037938129E-30	
     46.844548129374	     6.0393784950816E-30	
     46.870547733178	      6.354955141939E-30	
     46.896576213546	     6.6870012605848E-30	
     46.922633618612	      7.036401300263E-30	
     46.948719996617	     7.4040526833757E-30	
     46.974835395912	     7.7908998615288E-30	
     47.000906177686	     8.1979938491854E-30	
     47.027079682944	     8.6263221537546E-30	
     47.053208503692	     9.0770554728257E-30	
     47.079366375567	     9.5513148810251E-30	
     47.105479331519	     1.0050392233377E-29	
     47.131695368778	     1.0575514344936E-29	
     47.157866422534	     1.1128096284559E-29	
     47.184066556704	     1.1709535098463E-29	
     47.210295819784	     1.2321371074562E-29	
     47.236554260378	     1.2965137322927E-29	
     47.262767416563	     1.3642588318353E-29	
     47.289009682029	     1.4355439606078E-29	
     47.315355781599	     1.5105456993837E-29	
     47.341581734975	     1.5894773452028E-29	
     47.367911619808	     1.6725260173909E-29	
     47.394270808632	     1.7599120614635E-29	
     47.420584341323	     1.8518776857338E-29	
     47.446927109052	     1.9486395107408E-29	
     47.473299160566	     2.0504484929232E-29	
     47.499700544723	     2.1575878131154E-29	
     47.526055967381	     2.2703131754462E-29	
     47.552516079912	      2.388941204061E-29	
     47.578930161325	     2.5137658947921E-29	
     47.605373603601	     2.6451078496232E-29	
     47.631846455723	     2.7833099458582E-29	
     47.658273003882	     2.9287393594017E-29	
      47.68472889166	     3.0817770916903E-29	
      47.71129009926	     3.2427838622827E-29	
     47.737804897468	     3.4122317317466E-29	
     47.764273082132	     3.5905226601163E-29	
     47.790846818354	      3.778115288019E-29	
     47.817373870131	     3.9755283197875E-29	
       47.8440067411	     4.1832463633128E-29	
     47.870592856595	     4.4018188837528E-29	
     47.897132011203	     4.6318347053438E-29	
      47.92377721757	     4.8738325792702E-29	
     47.950452085929	     5.1284897885627E-29	
     47.977079885928	     5.3964510076303E-29	
     48.003737276208	     5.6784233425677E-29	
     48.030424306121	      5.975109788066E-29	
     48.057063988997	     6.2873280839217E-29	
     48.083810360894	     6.6158328463861E-29	
     48.110509313421	     6.9615208260928E-29	
      48.13723793207	     7.3252558214828E-29	
     48.163996266313	     7.7079988645583E-29	
     48.190784365732	     8.1107389523643E-29	
     48.217524728589	     8.5345365300583E-29	
     48.244372421162	      8.980447236162E-29	
     48.271172304081	     9.4496799988073E-29	
     48.298001978367	     9.9434192349158E-29	
     48.324783596886	     1.0463001685088E-28	
     48.351672916415	     1.1009674715999E-28	
     48.378514106452	      1.158494343901E-28	
     48.405385113436	     1.2190267707395E-28	
     48.432285987079	     1.2827198387328E-28	
     48.459216777203	     1.3497423492878E-28	
     48.486177533741	     1.4202639194599E-28	
     48.513089801638	     1.4945990726661E-28	
     48.540031961452	     1.5705446245166E-28	
     48.567004063012	     1.6494332109536E-28	
      48.59400615626	     1.7322836173692E-28	
     48.621038291247	     1.8192973238492E-28	
     48.648021575729	     1.9106890289027E-28	
     48.675113856845	     2.0066541671143E-28	
     48.702157212178	     2.1074438006205E-28	
     48.729230634195	     2.2133048424818E-28	
     48.756254879001	     2.3244809392928E-28	
     48.783388496724	     2.4412398217358E-28	
     48.810472861313	     2.5638623718625E-28	
     48.837587316895	     2.6926525668625E-28	
     48.864731913645	     2.8279047161041E-28	
      48.89190670185	     2.9699432701387E-28	
     48.919031907499	     3.1191328267734E-28	
     48.946267141012	     3.2758063079216E-28	
     48.973452715253	     3.4403514602382E-28	
     49.000668504919	     3.6131546648807E-28	
     49.027914560414	     3.7946419753069E-28	
     49.055110663128	     3.9852661532031E-28	
     49.082417312547	      4.185439440315E-28	
     49.109673931739	     4.3956711226456E-28	
     49.136960840234	     4.6164752860556E-28	
     49.164278088547	     4.8483610154004E-28	
     49.191625727309	     5.0918817166402E-28	
     49.218923001149	     5.3476679709512E-28	
     49.246250587257	     5.6162830954568E-28	
     49.273689521928	     5.8983773090886E-28	
     49.300996898465	     6.1946752653893E-28	
     49.328415724939	     6.5058286130649E-28	
      49.35586506643	     6.8326096329811E-28	
     49.383263627274	     7.1758222321383E-28	
      49.41069262414	     7.5362680768742E-28	
     49.438152107771	     7.9148126403833E-28	
     49.465642129023	      8.312378938172E-28	
     49.493162738867	      8.729901053136E-28	
      49.52063218856	     9.1684157947009E-28	
     49.548132147101	     9.6289591426203E-28	
     49.575662665346	     1.0112620201563E-27	
     49.603223794262	     1.0620590163331E-27	
     49.630815584932	     1.1154039364492E-27	
     49.658355833099	     1.1714339513783E-27	
     49.686009009337	     1.2302726382865E-27	
     49.713610562501	     1.2920706972353E-27	
     49.741242799119	     1.3569708998199E-27	
     49.768823148563	     1.4251361120172E-27	
     49.796516813807	     1.4967190638395E-27	
     49.824158510622	     1.5719058543355E-27	
      49.85191380956	     1.6508466869902E-27	
     49.879617058659	     1.7337785604841E-27	
     49.907268032742	     1.8208700841365E-27	
     49.935032855013	     1.9123368546139E-27	
      49.96274532025	     2.0083875071361E-27	
       49.9905719212	     2.1092645407326E-27	
     50.018346082938	     2.2152210171574E-27	
     50.046151123813	     2.3264884728977E-27	
     50.073903457491	     2.4433572578358E-27	
     50.101770318216	     2.5660773258278E-27	
     50.129584388874	     2.6949750481711E-27	
     50.157429358728	     2.8303504731083E-27	
     50.185305279299	     2.9725253295187E-27	
     50.213212202218	     3.1218347836395E-27	
     50.241150179234	     3.2786273581276E-27	
     50.269034971226	     3.4433211236236E-27	
     50.296950733586	     3.6162805500608E-27	
     50.324897517936	     3.7979383108463E-27	
     50.352875376018	      3.988710203402E-27	
     50.380884359686	     4.1890546034933E-27	
     50.408839760426	     4.3994870154639E-27	
     50.436911056863	     4.6204621623228E-27	
     50.464928685775	     4.8525509254389E-27	
     50.492977459489	     5.0962913395203E-27	
     50.520972291971	     5.3522959692144E-27	
     50.549083416516	     5.6211361436191E-27	
     50.577140514523	     5.9014496949925E-27	
     50.605314198034	     6.1859055674013E-27	
     50.633433769533	     6.4840511537006E-27	
     50.661584608495	     6.7965532861622E-27	
     50.689681059539	     7.1241342522504E-27	
     50.717894494652	     7.4674712607057E-27	
      50.74605345566	     7.8273931206632E-27	
     50.774243702176	     8.2046369919356E-27	
     50.802465286368	     8.6000773292978E-27	
     50.830718260522	      9.014555340433E-27	
     50.858916396221	     9.4490422941506E-27	
     50.887232211512	     9.9044249929042E-27	
      50.91549310127	     1.0381786835329E-26	
      50.94378539858	     1.0882152336931E-26	
     50.972109155828	     1.1406631126043E-26	
     51.000377664063	     1.1956411764827E-26	
     51.028764402201	      1.253264418149E-26	
     51.057095803437	     1.3136678810883E-26	
     51.085458681594	     1.3769822839361E-26	
     51.113853089158	     1.4433446666633E-26	
     51.142279078733	     1.5129087110001E-26	
      51.17073670304	     1.5858259414166E-26	
     51.199138575884	     1.6622629090715E-26	
     51.227571994662	     1.7423746087448E-26	
     51.256037011961	     1.8263491249154E-26	
     51.284533680485	     1.9143736641357E-26	
     51.313062053053	     2.0066345562704E-26	
     51.341534256522	        2.1033530439E-26	
     51.370038074415	     2.2047213863493E-26	
     51.398661680974	     2.3109723156938E-26	
     51.427228983866	     2.4223608277261E-26	
     51.455739742063	     2.5391122666556E-26	
     51.484370545666	     2.6614896041905E-26	
      51.51294471412	     2.7897610167508E-26	
     51.541639230398	     2.9242136216185E-26	
      51.57027702089	     3.0651431695129E-26	
      51.59885784312	      3.212882564436E-26	
     51.627559270721	     3.3677259761603E-26	
     51.656292645944	     3.5300405732538E-26	
      51.68496891583	     3.7001799656013E-26	
     51.713677041862	     3.8785141478269E-26	
     51.742417077153	     4.0654370005823E-26	
     51.771189074934	     4.2613827272249E-26	
     51.799993088553	     4.4667554213584E-26	
     51.828739568728	     4.6820435862891E-26	
      51.85751797242	     4.9077027158283E-26	
     51.886328352836	     5.1442428007641E-26	
       51.9151707633	     5.3921714471415E-26	
     51.944045257258	     5.6520497290973E-26	
     51.972861786504	     5.9244705828084E-26	
     52.001800507889	     6.2099914993426E-26	
     52.030681171293	     6.5092911764535E-26	
     52.059593931901	     6.8230105544904E-26	
     52.088538843251	     7.1518496731459E-26	
        52.117515959	     7.4965330330837E-26	
      52.14643462833	     7.8578506365983E-26	
     52.175385407928	     8.2365784195303E-26	
     52.204368351307	      8.633554895069E-26	
     52.233383512095	      9.049656076277E-26	
     52.262430944042	     9.4858090442285E-26	
     52.291510701017	     9.9429778696558E-26	
     52.320531525746	     1.0422213529461E-25	
     52.349584580407	     1.0924534274324E-25	
     52.378669918722	     1.1451055165012E-25	
      52.40778759453	     1.2002940908672E-25	
     52.436937661792	     1.2581432963514E-25	
     52.466120174588	     1.3187780660021E-25	
     52.495243265013	     1.3823398909178E-25	
     52.524398704903	      1.448960411664E-25	
     52.553586548187	     1.5187995849958E-25	
     52.582806848916	     1.5919961839288E-25	
      52.61205966126	     1.6687291576561E-25	
     52.641252605351	     1.7491555735588E-25	
     52.670477964107	      1.833460839622E-25	
     52.699735791544	     1.9218214934582E-25	
     52.729026141802	     2.0144538932318E-25	
     52.758349069138	     2.1115327848532E-25	
     52.787704627932	     2.2132996862319E-25	
     52.816999820298	     2.3180584955209E-25	
      52.84632754618	     2.4247930390515E-25	
     52.875781119097	     2.5366402739167E-25	
     52.905080815514	     2.6536766726546E-25	
     52.934506467778	     2.7760860775822E-25	
     52.963964871182	     2.9041542753703E-25	
     52.993362405584	     3.0381407217713E-25	
     53.022792592186	     3.1782966214905E-25	
     53.052255485419	     3.3249219111784E-25	
     53.081751139834	     3.4783017535406E-25	
     53.111279610106	     3.6387600352529E-25	
     53.140746754398	     3.8066326195382E-25	
     53.170340915943	     3.9822406495679E-25	
     53.199873651559	     4.1659576749717E-25	
     53.229439212511	     4.3581411244126E-25	
     53.259037653559	     4.5591867430071E-25	
     53.288574308147	     4.7695319078019E-25	
     53.318238568659	     4.9895486959518E-25	
      53.34784094185	     5.2197281195971E-25	
     53.377476203872	     5.4605338744703E-25	
     53.407144409567	     5.7124443604092E-25	
     53.436845613897	     5.9759753082113E-25	
     53.466484516979	     6.2516755048589E-25	
     53.496251777751	     6.5400648966201E-25	
     53.525956635386	     6.8417763728285E-25	
     53.555694499774	     7.1574115807101E-25	
      53.58546542596	     7.4876046617846E-25	
      53.61526946911	     7.8330129895072E-25	
     53.645010691694	     8.1943856266384E-25	
     53.674881027834	     8.5724078018518E-25	
     53.704688440483	     8.9678786861473E-25	
     53.734528977584	     9.3815960209278E-25	
     53.764402694385	     9.8143829986202E-25	
     53.794213118725	     1.0267173898909E-24	
     53.824153253678	     1.0740802975681E-24	
     53.854029992312	     1.1236325702646E-24	
     53.883939917357	      1.175469375483E-24	
     53.913883084139	     1.2296968776825E-24	
     53.943859548105	     1.2864259218265E-24	
     53.973869364828	     1.3457745916887E-24	
     54.003815308791	     1.4078629055656E-24	
     54.033891889846	      1.472799231252E-24	
     54.063904493116	     1.5407516444416E-24	
     54.093950455335	     1.6118205463518E-24	
     54.124029832154	      1.686188068702E-24	
      54.15404485614	     1.7639776403866E-24	
     54.184191120654	     1.8453446374401E-24	
      54.21427292636	     1.9304819860611E-24	
     54.244388152062	     2.0195367631905E-24	
     54.274536853482	      2.112712849967E-24	
     54.304719086469	      2.210174851801E-24	
     54.334934906996	     2.3121248765891E-24	
     54.365085784025	     2.4187983490425E-24	
     54.395270141544	      2.530387442935E-24	
      54.42548803535	     2.6471168326461E-24	
     54.455739521366	     2.7692355461689E-24	
     54.486024655637	     2.8969914454899E-24	
     54.516343494335	     3.0306312282372E-24	
     54.546596847207	     3.1704499516946E-24	
     54.576883796375	     3.3167066988706E-24	
      54.60720439783	     3.4697203500018E-24	
     54.637558707693	     3.6297830553429E-24	
     54.667946782205	     3.7972360113953E-24	
     54.698368677737	     3.9724062243659E-24	
     54.728724540371	      4.155672065735E-24	
       54.7591141148	     4.3473812726879E-24	
     54.789537457212	     4.5479439318257E-24	
     54.819994623921	     4.7577431391449E-24	
     54.850485671368	     4.9772353171404E-24	
     54.881010656117	     5.2068372279854E-24	
     54.911469056114	     5.4470460917707E-24	
     54.941961283087	      5.698343803038E-24	
     54.972487393417	     5.9612281268768E-24	
     55.003047443615	     6.2362318469438E-24	
     55.033641490315	     6.5239101224801E-24	
     55.064168451369	     6.8248902743116E-24	
     55.094830548812	     7.1397351657054E-24	
      55.12542544917	      7.469105176002E-24	
     55.156054347926	     7.8136805561348E-24	
     55.186717301784	     8.1741509578976E-24	
     55.217414367572	     8.5512275042881E-24	
     55.248043786742	     8.9415162667629E-24	
     55.278809133956	      9.335290412085E-24	
      55.30950672199	     9.7466177537348E-24	
     55.340238423114	     1.0176056720333E-23	
     55.371004294224	     1.0624417043744E-23	
     55.401702009702	     1.1092557919367E-23	
     55.432536277976	     1.1581274822016E-23	
      55.46330227705	     1.2091559997089E-23	
     55.494102446393	     1.2624325607212E-23	
     55.525039681584	     1.3180544826225E-23	
     55.555805523846	     1.3761356911746E-23	
     55.586708546254	     1.4367627878777E-23	
     55.617645967526	     1.5000657827977E-23	
     55.648514548239	      1.566162866309E-23	
     55.679417412978	     1.6351605878172E-23	
     55.710354618891	     1.7072067108419E-23	
     55.741326223254	     1.7824240592861E-23	
     55.772332283467	     1.8609590986326E-23	
      55.80326898485	     1.9429648395338E-23	
     55.834344013767	     2.0285601442178E-23	
     55.865349567862	     2.1179404883834E-23	
     55.896389576683	     2.2112664373954E-23	
     55.927464097695	     2.3086929565827E-23	
     55.958573188487	     2.4104103695539E-23	
     55.989612339689	     2.5166175061661E-23	
     56.020790626839	     2.6274965270439E-23	
     56.051898857245	     2.7432662859543E-23	
      56.08304165552	     2.8641280717648E-23	
     56.114219079314	     2.9903274738965E-23	
     56.145326036879	     3.1220847726535E-23	
     56.176572768106	     3.2596443869318E-23	
     56.207748914908	     3.4032724563746E-23	
      56.23906518493	     3.5532088880033E-23	
     56.270310752067	     3.7097672313412E-23	
     56.301591057625	     3.8732089713532E-23	
     56.332800306663	       4.04388161425E-23	
     56.364150145238	      4.222050620139E-23	
     56.395428807916	      4.408076437647E-23	
     56.426848411614	     4.6022898971299E-23	
     56.458196719768	     4.8050628861817E-23	
     56.489579878802	     5.0167742630284E-23	
     56.520891385909	     5.2378255716418E-23	
     56.552344302651	     5.4686053044064E-23	
     56.583725446896	     5.7095554915784E-23	
