# TLUSTY OSTAR2002+BSTAR2006
# teff = 37500 K (value for the effective temperature for the model. Temperatures are given in K)
# logg = 4 log(cm/s2) (value for Log(G) for the model.)
# z = 1  (Z/Z0)
#
#         WAVELENGTH	#                   FLUX	
#         (ANGSTROM)	#          (ERG/CM2/S/A)	
####################	########################	
     44.882873414538	     2.4671172115036E-31	
     44.907816823029	     2.5655504882545E-31	
     44.932787971259	     2.7040280006182E-31	
     44.957786905528	     2.8500025478079E-31	
     44.982746177196	     3.0038483252776E-31	
     45.007733177599	     3.1659951617154E-31	
     45.032747952971	     3.3369161099732E-31	
      45.05779054965	     3.5170449128296E-31	
     45.082793218463	     3.7068985751258E-31	
      45.10789152167	      3.906995937085E-31	
      45.13294983914	     4.1178979827568E-31	
     45.158036012858	     4.3401845869371E-31	
     45.183081991723	     4.5744947184513E-31	
     45.208223941659	     4.8214238211341E-31	
     45.233325638345	     5.0816933192702E-31	
     45.258455225762	     5.3560161192846E-31	
     45.283612750422	     5.6451339072404E-31	
     45.308798258938	     5.9498583163962E-31	
     45.333943244952	     6.2710528281479E-31	
     45.359184785076	     6.6095577447887E-31	
     45.384385743676	     6.9663584105829E-31	
     45.409614720477	     7.3424144273378E-31	
     45.434802903778	     7.7387780088483E-31	
     45.460087980675	      8.156518628017E-31	
     45.485332204516	     8.5968127383895E-31	
     45.510604480433	     9.0608872761156E-31	
     45.535904855209	     9.5500049894624E-31	
     45.561233375735	     1.0065513482984E-30	
     45.586520769912	     1.0608895113307E-30	
     45.611836249694	     1.1181582581964E-30	
     45.637179861898	     1.1785175497164E-30	
     45.662551653443	     1.2421356364316E-30	
     45.687951671355	     1.3091853998583E-30	
     45.713310257544	     1.3798593482974E-30	
     45.738766792027	       1.45434392101E-30	
     45.764181834002	     1.5328505002827E-30	
      45.78955519781	     1.6156013816962E-30	
     45.815026728651	     1.7028110909436E-30	
     45.840456520044	     1.7947397704482E-30	
     45.865984728293	     1.8916130170377E-30	
     45.891471135712	     1.9937291836578E-30	
     45.916985883005	     2.1013506728239E-30	
     45.942458611669	     2.2147866097138E-30	
     45.968030102304	     2.3343425458183E-30	
     45.993559512376	     2.4603497403705E-30	
     46.019117294904	     2.5931706246872E-30	
     46.044703497212	     2.7331371651793E-30	
      46.07024736872	     2.8806951255005E-30	
     46.095890474148	     3.0361912462081E-30	
     46.121491186235	     3.2000945790727E-30	
     46.147120350345	     3.3728273725691E-30	
     46.172778013935	      3.554907071612E-30	
     46.198393032158	     3.7468073132805E-30	
     46.224107758229	     3.9490537167714E-30	
      46.24977977578	     4.1622332208364E-30	
     46.275480324708	     4.3869300886523E-30	
     46.301209452603	     4.6237373585461E-30	
      46.32689561815	     4.8733305755094E-30	
     46.352681967456	     5.1363904465494E-30	
     46.378425290646	     5.4136722218383E-30	
     46.404197224346	     5.7059168068224E-30	
     46.429997816279	     6.0139115978813E-30	
     46.455755126455	     6.3385647008349E-30	
     46.481613098284	     6.6807222270394E-30	
     46.507427723964	     7.0413571074196E-30	
     46.533271039062	     7.4214649716734E-30	
     46.559143091431	     7.8220911288501E-30	
     46.584971540186	     8.2443537178058E-30	
     46.610901130475	     8.6893770153203E-30	
     46.636787052132	     9.1552127181276E-30	
     46.662701741879	     9.6309844470707E-30	
     46.688645247699	     1.0131744135756E-29	
     46.714617617682	     1.0658545149489E-29	
     46.740546026876	     1.1212746750858E-29	
     46.766503234583	     1.1795773558209E-29	
     46.792489288808	     1.2409109379436E-29	
     46.818504237665	     1.3054317033208E-29	
     46.844548129374	     1.3733055048831E-29	
     46.870547733178	     1.4447139426571E-29	
     46.896576213546	     1.5198343690337E-29	
     46.922633618612	     1.5988576340727E-29	
     46.948719996617	      1.681990788939E-29	
     46.974835395912	     1.7694399195523E-29	
     47.000906177686	     1.8614432704196E-29	
     47.027079682944	      1.958241240582E-29	
     47.053208503692	     2.0600504920406E-29	
     47.079366375567	     2.1671709021172E-29	
     47.105479331519	     2.2798460208431E-29	
     47.131695368778	     2.3983989237901E-29	
     47.157866422534	     2.5230951190704E-29	
     47.184066556704	     2.6542955331865E-29	
     47.210295819784	     2.7922989405074E-29	
     47.236554260378	     2.9374871324931E-29	
     47.262767416563	     3.0902330028014E-29	
     47.289009682029	     3.2509061302359E-29	
     47.315355781599	     3.4199228099946E-29	
     47.341581734975	     3.5977573387785E-29	
     47.367911619808	     3.7848171824037E-29	
     47.394270808632	     3.9816180171294E-29	
     47.420584341323	      4.188642116039E-29	
     47.446927109052	     4.4064281155894E-29	
     47.473299160566	     4.6355407655834E-29	
     47.499700544723	     4.8765755771084E-29	
     47.526055967381	      5.130141548522E-29	
     47.552516079912	     5.3968636032771E-29	
     47.578930161325	      5.677478675213E-29	
     47.605373603601	     5.9726874360882E-29	
     47.631846455723	     6.2832366876441E-29	
     47.658273003882	     6.6099571047377E-29	
      47.68472889166	     6.9536523299478E-29	
      47.71129009926	     7.3151840529485E-29	
     47.737804897468	     7.6955445911508E-29	
     47.764273082132	     8.0956966911762E-29	
     47.790846818354	     8.5166271787522E-29	
     47.817373870131	     8.9594543210011E-29	
       47.8440067411	      9.425281403423E-29	
     47.870592856595	     9.9153700984852E-29	
     47.897132011203	     1.0430939050216E-28	
      47.92377721757	     1.0973295601047E-28	
     47.950452085929	     1.1543837275221E-28	
     47.977079885928	     1.2144076980037E-28	
     48.003737276208	     1.2775512476491E-28	
     48.030424306121	     1.3439767440776E-28	
     48.057063988997	     1.4138617487743E-28	
     48.083810360894	     1.4873729144508E-28	
     48.110509313421	     1.5647105056761E-28	
      48.13723793207	     1.6460616982831E-28	
     48.163996266313	     1.7316530334702E-28	
     48.190784365732	     1.8216905330801E-28	
     48.217524728589	     1.9164243079457E-28	
     48.244372421162	      2.016052790755E-28	
     48.271172304081	     2.1208789550936E-28	
     48.298001978367	     2.2311533268941E-28	
     48.324783596886	     2.3471712273916E-28	
     48.351672916415	     2.4692204466383E-28	
     48.378514106452	      2.597601576212E-28	
     48.405385113436	     2.7326711862168E-28	
     48.432285987079	     2.8747596028679E-28	
     48.459216777203	     3.0242276931834E-28	
     48.486177533741	     3.1814666888054E-28	
     48.513089801638	     3.3471809629212E-28	
     48.540031961452	     3.5164869012931E-28	
     48.567004063012	     3.6923742647265E-28	
      48.59400615626	     3.8770537003916E-28	
     48.621038291247	     4.0709570423073E-28	
     48.648021575729	     4.2745757304943E-28	
     48.675113856845	     4.4883580564665E-28	
     48.702157212178	     4.7128374116434E-28	
     48.729230634195	     4.9485501366173E-28	
     48.756254879001	     5.1960766252515E-28	
     48.783388496724	     5.4559447878956E-28	
     48.810472861313	     5.7288424695568E-28	
     48.837587316895	     6.0153713660663E-28	
     48.864731913645	     6.3162260650648E-28	
      48.89190670185	     6.6321294306109E-28	
     48.919031907499	     6.9638551592288E-28	
     48.946267141012	     7.3121378526269E-28	
     48.973452715253	     7.6778623160116E-28	
     49.000668504919	     8.0618715470582E-28	
     49.027914560414	     8.4650899139133E-28	
     49.055110663128	     8.8884978636915E-28	
     49.082417312547	     9.3330325100159E-28	
     49.109673931739	     9.7998365364688E-28	
     49.136960840234	     1.0289990114385E-27	
     49.164278088547	      1.080464407758E-27	
     49.191625727309	     1.1345021718389E-27	
     49.218923001149	     1.1912473028601E-27	
     49.246250587257	     1.2508298666123E-27	
     49.273689521928	     1.3133862895553E-27	
     49.300996898465	     1.3790804594705E-27	
     49.328415724939	     1.4480542996731E-27	
      49.35586506643	     1.5204771037237E-27	
     49.383263627274	     1.5965306940326E-27	
      49.41069262414	     1.6763721922301E-27	
     49.438152107771	     1.7602259207411E-27	
     49.465642129023	     1.8482628133604E-27	
     49.493162738867	     1.9406991360524E-27	
      49.52063218856	     2.0377722389365E-27	
     49.548132147101	     2.1396902667162E-27	
     49.575662665346	     2.2467124437709E-27	
     49.603223794262	     2.3590814758755E-27	
     49.630815584932	     2.4770695197052E-27	
     49.658355833099	     2.6009560764618E-27	
     49.686009009337	     2.7310397440602E-27	
     49.713610562501	     2.8676369152424E-27	
     49.741242799119	     3.0110667726525E-27	
     49.768823148563	     3.1616660812834E-27	
     49.796516813807	     3.3197998858646E-27	
     49.824158510622	     3.4858431254021E-27	
      49.85191380956	     3.6601855486738E-27	
     49.879617058659	      3.843246240401E-27	
     49.907268032742	     4.0354810520156E-27	
     49.935032855013	     4.2373005665316E-27	
      49.96274532025	      4.449242589205E-27	
       49.9905719212	     4.6717709405527E-27	
     50.018346082938	     4.9054215840711E-27	
     50.046151123813	     5.1507731597872E-27	
     50.073903457491	     5.4084043897759E-27	
     50.101770318216	     5.6788981127617E-27	
     50.129584388874	     5.9629366196174E-27	
     50.157429358728	     6.2611740670431E-27	
     50.185305279299	     6.5743393705246E-27	
     50.213212202218	     6.9031431016243E-27	
     50.241150179234	     7.2483969750474E-27	
     50.269034971226	     7.6109493464313E-27	
     50.296950733586	     7.9916111456959E-27	
     50.324897517936	     8.3913166525331E-27	
     50.352875376018	     8.8110106464873E-27	
     50.380884359686	     9.2516928571994E-27	
     50.408839760426	     9.7144354835872E-27	
     50.436911056863	     1.0200283549184E-26	
     50.464928685775	     1.0710452107238E-26	
     50.492977459489	     1.1246139924188E-26	
     50.520972291971	     1.1808656763117E-26	
     50.549083416516	     1.2399248034953E-26	
     50.577140514523	     1.3015056179446E-26	
     50.605314198034	      1.364018223205E-26	
     50.633433769533	     1.4295297894886E-26	
     50.661584608495	     1.4981899877662E-26	
     50.689681059539	     1.5701472074582E-26	
     50.717894494652	     1.6455539981415E-26	
      50.74605345566	     1.7245848731313E-26	
     50.774243702176	     1.8074266306666E-26	
     50.802465286368	      1.894226693007E-26	
     50.830718260522	     1.9852046868612E-26	
     50.858916396221	     2.0805571469158E-26	
     50.887232211512	     2.1804734304548E-26	
      50.91549310127	     2.2851992744153E-26	
      50.94378539858	     2.3949578312594E-26	
     50.972109155828	     2.5099927344824E-26	
     51.000377664063	     2.6305409428422E-26	
     51.028764402201	     2.7568842633515E-26	
     51.057095803437	     2.8892955954159E-26	
     51.085458681594	     3.0280626833992E-26	
     51.113853089158	     3.1734952538422E-26	
     51.142279078733	     3.3259159872075E-26	
      51.17073670304	     3.4856460522865E-26	
     51.199138575884	     3.6530607005288E-26	
     51.227571994662	      3.828509742001E-26	
     51.256037011961	     4.0123956615547E-26	
     51.284533680485	     4.2051047396082E-26	
     51.313062053053	     4.4070643658598E-26	
     51.341534256522	     4.6187300390304E-26	
     51.370038074415	     4.8405679209584E-26	
     51.398661680974	     5.0730389208188E-26	
     51.427228983866	     5.3166957798099E-26	
     51.455739742063	      5.572057403056E-26	
     51.484370545666	     5.8396714708542E-26	
      51.51294471412	     6.1201595264605E-26	
     51.541639230398	     6.4140742451016E-26	
      51.57027702089	     6.7221347303605E-26	
      51.59885784312	     7.0450171065256E-26	
     51.627559270721	     7.3833720701413E-26	
     51.656292645944	     7.7379739687256E-26	
      51.68496891583	     8.1096266687985E-26	
     51.713677041862	     8.4991194489939E-26	
     51.742417077153	     8.9073194894747E-26	
     51.771189074934	     9.3351320789057E-26	
     51.799993088553	      9.783472305517E-26	
     51.828739568728	     1.0253370560017E-25	
      51.85751797242	     1.0745827136001E-25	
     51.886328352836	     1.1261939704524E-25	
       51.9151707633	     1.1802842734849E-25	
     51.944045257258	     1.2369693306297E-25	
     51.972861786504	     1.2963827484083E-25	
     52.001800507889	      1.358642869601E-25	
     52.030681171293	     1.4239035310001E-25	
     52.059593931901	     1.4922833506041E-25	
     52.088538843251	     1.5639520688838E-25	
        52.117515959	     1.6390647661817E-25	
      52.14643462833	     1.7177956251829E-25	
     52.175385407928	     1.8003066693803E-25	
     52.204368351307	     1.8867645721102E-25	
     52.233383512095	     1.9773904554153E-25	
     52.262430944042	     2.0723492421333E-25	
     52.291510701017	      2.171887738366E-25	
     52.320531525746	     2.2762044987109E-25	
     52.349584580407	     2.3855232992051E-25	
     52.378669918722	     2.5001015240552E-25	
      52.40778759453	     2.6201816401434E-25	
     52.436937661792	     2.7460186771832E-25	
     52.466120174588	     2.8778938390217E-25	
     52.495243265013	     3.0161249158255E-25	
     52.524398704903	     3.1609808505673E-25	
     52.553586548187	     3.3128070843026E-25	
     52.582806848916	      3.471906571334E-25	
      52.61205966126	     3.6386624992131E-25	
     52.641252605351	     3.8134288744925E-25	
     52.670477964107	     3.9965869362391E-25	
     52.699735791544	     4.1885418293019E-25	
     52.729026141802	     4.3897103523236E-25	
     52.758349069138	     4.6005344198161E-25	
     52.787704627932	     4.8214809144311E-25	
     52.816999820298	     5.0489674373978E-25	
      52.84632754618	     5.2808234711356E-25	
     52.875781119097	     5.5237779862692E-25	
     52.905080815514	     5.7779318377256E-25	
     52.934506467778	     6.0437661097689E-25	
     52.963964871182	        6.3218372988E-25	
     52.993362405584	     6.6127032695343E-25	
     53.022792592186	     6.9169551872673E-25	
     53.052255485419	     7.2352026934687E-25	
     53.081751139834	      7.568092677636E-25	
     53.111279610106	     7.9162823475929E-25	
     53.140746754398	     8.2805218775363E-25	
     53.170340915943	     8.6614980085781E-25	
     53.199873651559	     9.0600115338298E-25	
     53.229439212511	     9.4768501663495E-25	
     53.259037653559	     9.9128802681762E-25	
     53.288574308147	      1.036898773346E-24	
     53.318238568659	     1.0846038352261E-24	
      53.34784094185	     1.1345067591272E-24	
     53.377476203872	      1.186706029932E-24	
     53.407144409567	     1.2413046604372E-24	
     53.436845613897	     1.2984157337024E-24	
     53.466484516979	     1.3581540109569E-24	
     53.496251777751	     1.4206457555835E-24	
     53.525956635386	     1.4860123264895E-24	
     53.555694499774	     1.5543834496204E-24	
      53.58546542596	     1.6258930644702E-24	
      53.61526946911	     1.7007006915776E-24	
     53.645010691694	     1.7789583814466E-24	
     53.674881027834	     1.8607986951965E-24	
     53.704688440483	     1.9464181878798E-24	
     53.734528977584	     2.0359670803984E-24	
     53.764402694385	     2.1296403197802E-24	
     53.794213118725	     2.2276269171547E-24	
     53.824153253678	     2.3301174280172E-24	
     53.854029992312	     2.4373334530132E-24	
     53.883939917357	     2.5494712908059E-24	
     53.913883084139	      2.666773155178E-24	
     53.943859548105	     2.7894671806625E-24	
     53.973869364828	     2.9178062919066E-24	
     54.003815308791	     3.0520532220143E-24	
     54.033891889846	     3.1924757529979E-24	
     54.063904493116	     3.3393585636316E-24	
     54.093950455335	     3.4930031186057E-24	
     54.124029832154	     3.6537075553157E-24	
      54.15404485614	     3.8218209529149E-24	
     54.184191120654	     3.9976628705125E-24	
      54.21427292636	      4.181593711131E-24	
     54.244388152062	     4.3739942939186E-24	
     54.274536853482	     4.5752318215482E-24	
     54.304719086469	     4.7857356414738E-24	
     54.334934906996	     5.0059203294662E-24	
     54.365085784025	     5.2362429937938E-24	
     54.395270141544	     5.4771733971374E-24	
      54.42548803535	     5.7291709247899E-24	
     54.455739521366	     5.9927690239417E-24	
     54.486024655637	     6.2684859534432E-24	
     54.516343494335	     6.5568882371487E-24	
     54.546596847207	     6.8585773581108E-24	
     54.576883796375	     7.1741424386348E-24	
      54.60720439783	     7.5042304183507E-24	
     54.637558707693	      7.849497823024E-24	
     54.667946782205	     8.2106359100042E-24	
     54.698368677737	     8.5883956455739E-24	
     54.728724540371	      8.983557271119E-24	
       54.7591141148	     9.3968852191099E-24	
     54.789537457212	     9.8292454384395E-24	
     54.819994623921	      1.028147475034E-23	
     54.850485671368	     1.0754506212274E-23	
     54.881010656117	     1.1249306026702E-23	
     54.911469056114	     1.1766891456044E-23	
     54.941961283087	     1.2308292820271E-23	
     54.972487393417	     1.2874637113318E-23	
     55.003047443615	      1.346689661801E-23	
     55.033641490315	     1.4086548993693E-23	
     55.064168451369	      1.473467186179E-23	
     55.094830548812	     1.5412550442538E-23	
      55.12542544917	     1.6121680179685E-23	
     55.156054347926	     1.6863509068405E-23	
     55.186717301784	       1.76394085011E-23	
     55.217414367572	     1.8450866957574E-23	
     55.248043786742	     1.9290920837296E-23	
     55.278809133956	     2.0138989198395E-23	
      55.30950672199	     2.1024741488385E-23	
     55.340238423114	     2.1949329670415E-23	
     55.371004294224	      2.291470819613E-23	
     55.401702009702	     2.3922542581274E-23	
     55.432536277976	     2.4974597350343E-23	
      55.46330227705	     2.6072981937791E-23	
     55.494102446393	     2.7219772345734E-23	
     55.525039681584	     2.8416773197729E-23	
     55.555805523846	     2.9666689362149E-23	
     55.586708546254	     3.0971339084213E-23	
     55.617645967526	     3.2333438711469E-23	
     55.648514548239	     3.3755469085238E-23	
     55.679417412978	     3.5240024980925E-23	
     55.710354618891	     3.6789924689103E-23	
     55.741326223254	     3.8407973258515E-23	
     55.772332283467	      4.009708362843E-23	
      55.80326898485	     4.1860673770184E-23	
     55.834344013767	     4.3701564900012E-23	
     55.865349567862	     4.5623670267696E-23	
     55.896389576683	     4.7630170951679E-23	
     55.927464097695	     4.9724869880538E-23	
     55.958573188487	     5.1911792721712E-23	
     55.989612339689	     5.4194908298866E-23	
     56.020790626839	     5.6578289586143E-23	
     56.051898857245	     5.9066679164634E-23	
      56.08304165552	     6.1664422862477E-23	
     56.114219079314	      6.437640645075E-23	
     56.145326036879	     6.7207863964834E-23	
     56.176572768106	     7.0163620104916E-23	
     56.207748914908	     7.3249482468712E-23	
      56.23906518493	     7.6470776442485E-23	
     56.270310752067	     7.9834018536226E-23	
     56.301591057625	     8.3345099209619E-23	
     56.332800306663	     8.7010837695968E-23	
     56.364150145238	     9.0837411977275E-23	
     56.395428807916	     9.4832632555053E-23	
     56.426848411614	     9.9003027077857E-23	
     56.458196719768	     1.0335722675564E-22	
     56.489579878802	     1.0790285814319E-22	
     56.520891385909	     1.1264876345029E-22	
     56.552344302651	     1.1760284327291E-22	
     56.583725446896	     1.2277524609733E-22	
