# TLUSTY OSTAR2002+BSTAR2006
# teff = 37500 K (value for the effective temperature for the model. Temperatures are given in K)
# logg = 4.5 log(cm/s2) (value for Log(G) for the model.)
# z = 1  (Z/Z0)
#
#         WAVELENGTH	#                   FLUX	
#         (ANGSTROM)	#          (ERG/CM2/S/A)	
####################	########################	
     44.882873414538	     6.5600224568001E-32	
     44.907816823029	     6.8231922890755E-32	
     44.932787971259	      7.193506024624E-32	
     44.957786905528	     7.5839151940889E-32	
     44.982746177196	      7.995547584561E-32	
     45.007733177599	     8.4294990807452E-32	
     45.032747952971	     8.8870119628457E-32	
      45.05779054965	     9.3693412905409E-32	
     45.082793218463	     9.8778771948621E-32	
      45.10789152167	     1.0413990032902E-31	
      45.13294983914	     1.0979199505386E-31	
     45.158036012858	      1.157509411182E-31	
     45.183081991723	     1.2203358226315E-31	
     45.208223941659	     1.2865670806251E-31	
     45.233325638345	     1.3563978894964E-31	
     45.258455225762	     1.4300163746185E-31	
     45.283612750422	     1.5076299810693E-31	
     45.308798258938	     1.5894543640671E-31	
     45.333943244952	     1.6757239065457E-31	
     45.359184785076	     1.7666698140521E-31	
     45.384385743676	     1.8625607603006E-31	
     45.409614720477	     1.9636432695018E-31	
     45.434802903778	     2.0702342574112E-31	
     45.460087980675	     2.1825760298897E-31	
     45.485332204516	     2.3010440889119E-31	
     45.510604480433	     2.4259385422477E-31	
     45.535904855209	     2.5576006787397E-31	
     45.561233375735	     2.6964064933248E-31	
     45.586520769912	     2.8427570045727E-31	
     45.611836249694	     2.9970531686914E-31	
     45.637179861898	     3.1597198983369E-31	
     45.662551653443	     3.3312162632772E-31	
     45.687951671355	     3.5120172444219E-31	
     45.713310257544	     3.7026249282256E-31	
     45.738766792027	     3.9035778853252E-31	
     45.764181834002	     4.1154393248172E-31	
      45.78955519781	     4.3388206006554E-31	
     45.815026728651	     4.5743024895215E-31	
     45.840456520044	     4.8225877455474E-31	
     45.865984728293	     5.0843199774039E-31	
     45.891471135712	      5.360270286661E-31	
     45.916985883005	     5.6511970539902E-31	
     45.942458611669	     5.9579237658397E-31	
     45.968030102304	     6.2812698602701E-31	
     45.993559512376	      6.622195176777E-31	
     46.019117294904	     6.9816173254888E-31	
     46.044703497212	     7.3605388950195E-31	
      46.07024736872	     7.7600349034978E-31	
     46.095890474148	     8.1811938760622E-31	
     46.121491186235	     8.6252300151638E-31	
     46.147120350345	     9.0933677617787E-31	
     46.172778013935	      9.586902611316E-31	
     46.198393032158	     1.0107261081442E-30	
     46.224107758229	     1.0655806710808E-30	
      46.24977977578	     1.1234162078307E-30	
     46.275480324708	     1.1843882630437E-30	
     46.301209452603	     1.2486705730413E-30	
      46.32689561815	     1.3164436450378E-30	
     46.352681967456	     1.3878909613377E-30	
     46.378425290646	     1.4632201683732E-30	
     46.404197224346	     1.5426360650764E-30	
     46.429997816279	     1.6263622745438E-30	
     46.455755126455	     1.7146354208868E-30	
     46.481613098284	     1.8076963235163E-30	
     46.507427723964	     1.9058059196642E-30	
     46.533271039062	     2.0092442991675E-30	
     46.559143091431	     2.1182885883682E-30	
     46.584971540186	     2.2332736395797E-30	
     46.610901130475	     2.3544776606278E-30	
     46.636787052132	     2.4813912089357E-30	
     46.662701741879	     2.6110636648734E-30	
     46.688645247699	     2.7475810847459E-30	
     46.714617617682	     2.8912479136055E-30	
     46.740546026876	     3.0424283829757E-30	
     46.766503234583	     3.2015015425596E-30	
     46.792489288808	     3.3689048106367E-30	
     46.818504237665	     3.5450563846305E-30	
     46.844548129374	     3.7304068426442E-30	
     46.870547733178	     3.9254683783015E-30	
     46.896576213546	     4.1307104739596E-30	
     46.922633618612	     4.3466969927105E-30	
     46.948719996617	     4.5739720840391E-30	
     46.974835395912	     4.8131285729733E-30	
     47.000906177686	     5.0647894525541E-30	
     47.027079682944	     5.3295962126133E-30	
     47.053208503692	     5.6082678332878E-30	
     47.079366375567	     5.9015056476268E-30	
     47.105479331519	     6.2100939719086E-30	
     47.131695368778	     6.5347899570748E-30	
     47.157866422534	     6.8764760307401E-30	
     47.184066556704	      7.236021933662E-30	
     47.210295819784	     7.6143634851433E-30	
     47.236554260378	     8.0124996755815E-30	
     47.262767416563	     8.4314514210123E-30	
     47.289009682029	     8.8723193982832E-30	
     47.315355781599	     9.3361935644183E-30	
     47.341581734975	     9.8243773875603E-30	
     47.367911619808	     1.0338059012022E-29	
     47.394270808632	     1.0878588822075E-29	
     47.420584341323	     1.1447401540692E-29	
     47.446927109052	     1.2045957162404E-29	
     47.473299160566	     1.2675808260175E-29	
     47.499700544723	     1.3338566954943E-29	
     47.526055967381	     1.4036015772359E-29	
     47.552516079912	     1.4769897933465E-29	
     47.578930161325	     1.5542176298045E-29	
     47.605373603601	     1.6354818862622E-29	
     47.631846455723	     1.7209961581466E-29	
     47.658273003882	     1.8109771439561E-29	
      47.68472889166	     1.9056760383389E-29	
      47.71129009926	     2.0053184885033E-29	
     47.737804897468	     2.1101643994858E-29	
     47.764273082132	      2.220510642754E-29	
     47.790846818354	     2.3366049350605E-29	
     47.817373870131	      2.458788013571E-29	
       47.8440067411	     2.5873363451205E-29	
     47.870592856595	     2.7226222037786E-29	
     47.897132011203	     2.8649850163175E-29	
      47.92377721757	     3.0147762990547E-29	
     47.950452085929	     3.1724051354381E-29	
     47.977079885928	     3.3382807311456E-29	
     48.003737276208	     3.5128392326719E-29	
     48.030424306121	     3.6965080196597E-29	
     48.057063988997	     3.8897901921152E-29	
     48.083810360894	     4.0931661043278E-29	
     48.110509313421	     4.3071962591157E-29	
      48.13723793207	     4.5324006300069E-29	
     48.163996266313	     4.7693903738719E-29	
     48.190784365732	     5.0187575808551E-29	
     48.217524728589	     5.2811895800731E-29	
     48.244372421162	     5.5573043232234E-29	
     48.271172304081	     5.8478817678386E-29	
     48.298001978367	     6.1536465870909E-29	
     48.324783596886	      6.475422384482E-29	
     48.351672916415	     6.8139997234575E-29	
     48.378514106452	     7.1702810981761E-29	
     48.405385113436	     7.5451977883601E-29	
     48.432285987079	     7.9397135787781E-29	
     48.459216777203	     8.3548519284159E-29	
     48.486177533741	     8.7916956201031E-29	
     48.513089801638	     9.2521526790783E-29	
     48.540031961452	     9.7226201129575E-29	
     48.567004063012	     1.0211335265015E-28	
      48.59400615626	     1.0724616199306E-28	
     48.621038291247	     1.1263700931009E-28	
     48.648021575729	      1.182989191579E-28	
     48.675113856845	     1.2424515564735E-28	
     48.702157212178	     1.3049045508352E-28	
     48.729230634195	     1.3704958738838E-28	
     48.756254879001	     1.4393889619897E-28	
     48.783388496724	     1.5117390339417E-28	
     48.810472861313	     1.5877319408927E-28	
     48.837587316895	      1.667535280696E-28	
     48.864731913645	     1.7513552366807E-28	
      48.89190670185	     1.8393986080388E-28	
     48.919031907499	     1.9318617903556E-28	
     48.946267141012	     2.0289531413137E-28	
     48.973452715253	     2.1309523593277E-28	
     49.000668504919	     2.2380559251407E-28	
     49.027914560414	     2.3505597030067E-28	
     49.055110663128	     2.4687192963271E-28	
     49.082417312547	     2.5928122322408E-28	
     49.109673931739	     2.7231470257315E-28	
     49.136960840234	     2.8600218020534E-28	
     49.164278088547	     3.0037880912356E-28	
     49.191625727309	     3.1547646483383E-28	
     49.218923001149	     3.3133573670828E-28	
     49.246250587257	     3.4799030457397E-28	
     49.273689521928	     3.6548122783856E-28	
     49.300996898465	     3.8385417467748E-28	
     49.328415724939	     4.0314895648409E-28	
      49.35586506643	     4.2341308011068E-28	
     49.383263627274	     4.4469718897114E-28	
      49.41069262414	     4.6705045832127E-28	
     49.438152107771	     4.9052623686949E-28	
     49.465642129023	     5.1518378259516E-28	
     49.493162738867	     5.4107900120928E-28	
      49.52063218856	     5.6827863090641E-28	
     49.548132147101	     5.9684400851798E-28	
     49.575662665346	     6.2684400744363E-28	
     49.603223794262	     6.5835330390846E-28	
     49.630815584932	     6.9144622568435E-28	
     49.658355833099	     7.2620374155069E-28	
     49.686009009337	     7.6270546143458E-28	
     49.713610562501	     8.0104328501814E-28	
     49.741242799119	     8.4130898499339E-28	
     49.768823148563	     8.8360075490622E-28	
     49.796516813807	     9.2801376748512E-28	
     49.824158510622	     9.7466357882503E-28	
      49.85191380956	     1.0236528868175E-27	
     49.879617058659	       1.07510745288E-27	
     49.907268032742	     1.1291524158878E-27	
     49.935032855013	     1.1859090173566E-27	
      49.96274532025	     1.2455220093342E-27	
       49.9905719212	     1.3081272191409E-27	
     50.018346082938	     1.3738809452027E-27	
     50.046151123813	     1.4429411809661E-27	
     50.073903457491	     1.5154728745902E-27	
     50.101770318216	      1.591649307732E-27	
     50.129584388874	     1.6716616843457E-27	
     50.157429358728	     1.7556864287154E-27	
     50.185305279299	     1.8439340939185E-27	
     50.213212202218	      1.936629192755E-27	
     50.241150179234	     2.0339653413708E-27	
     50.269034971226	     2.1362169488324E-27	
     50.296950733586	     2.2435989065594E-27	
     50.324897517936	     2.3563761799273E-27	
     50.352875376018	     2.4748124981852E-27	
     50.380884359686	     2.5992148828743E-27	
     50.408839760426	     2.7298684536855E-27	
     50.436911056863	     2.8670743870976E-27	
     50.464928685775	     3.0111987211097E-27	
     50.492977459489	     3.1625631145072E-27	
     50.520972291971	     3.3215375715365E-27	
     50.549083416516	     3.4885016329525E-27	
     50.577140514523	     3.6625818046858E-27	
     50.605314198034	     3.8391836635952E-27	
     50.633433769533	     4.0243037718627E-27	
     50.661584608495	     4.2183260932718E-27	
     50.689681059539	     4.4217333521154E-27	
     50.717894494652	     4.6349180240466E-27	
      50.74605345566	     4.8584036288079E-27	
     50.774243702176	     5.0926512182888E-27	
     50.802465286368	     5.3382075491544E-27	
     50.830718260522	     5.5955876628693E-27	
     50.858916396221	     5.8653969037083E-27	
     50.887232211512	     6.1481791430626E-27	
      50.91549310127	     6.4446278740534E-27	
      50.94378539858	     6.7553583970184E-27	
     50.972109155828	     7.0810754336276E-27	
     51.000377664063	     7.4225056623835E-27	
     51.028764402201	     7.7803847451318E-27	
     51.057095803437	     8.1555169028903E-27	
     51.085458681594	     8.5487558100507E-27	
     51.113853089158	      8.960933034246E-27	
     51.142279078733	     9.3929914677283E-27	
      51.17073670304	     9.8458695917469E-27	
     51.199138575884	     1.0320608592004E-26	
     51.227571994662	     1.0818235295456E-26	
     51.256037011961	     1.1339846642927E-26	
     51.284533680485	     1.1886591733506E-26	
     51.313062053053	     1.2459700129075E-26	
     51.341534256522	     1.3060483242598E-26	
     51.370038074415	     1.3690218547799E-26	
     51.398661680974	     1.4350225852668E-26	
     51.427228983866	     1.5042234413679E-26	
     51.455739742063	     1.5767450214874E-26	
     51.484370545666	      1.652764293509E-26	
      51.51294471412	     1.7324648319573E-26	
     51.541639230398	     1.8159924905553E-26	
      51.57027702089	     1.9035445532462E-26	
      51.59885784312	     1.9953344673435E-26	
     51.627559270721	     2.0915462384111E-26	
     51.656292645944	     2.1923828968224E-26	
      51.68496891583	     2.2980902304138E-26	
     51.713677041862	     2.4088978399802E-26	
     51.742417077153	     2.5250414224581E-26	
     51.771189074934	     2.6467977360272E-26	
     51.799993088553	     2.7744001264766E-26	
     51.828739568728	     2.9081750393405E-26	
      51.85751797242	     3.0484002970738E-26	
     51.886328352836	     3.1953895057143E-26	
       51.9151707633	     3.3494548040286E-26	
     51.944045257258	     3.5109487526849E-26	
     51.972861786504	     3.6802350232082E-26	
     52.001800507889	     3.8576797757449E-26	
     52.030681171293	     4.0436706097855E-26	
     52.059593931901	     4.2386518542812E-26	
     52.088538843251	     4.4430090443007E-26	
        52.117515959	     4.6572368540969E-26	
      52.14643462833	       4.88178921575E-26	
     52.175385407928	     5.1171825655639E-26	
     52.204368351307	     5.3639048293013E-26	
     52.233383512095	     5.6225382977619E-26	
     52.262430944042	     5.8936211652995E-26	
     52.291510701017	     6.1777855379982E-26	
     52.320531525746	     6.4756556448036E-26	
     52.349584580407	     6.7878923663164E-26	
     52.378669918722	      7.115173948912E-26	
      52.40778759453	     7.4582440425109E-26	
     52.436937661792	     7.8178428183494E-26	
     52.466120174588	      8.194761717409E-26	
     52.495243265013	     8.5899005747684E-26	
     52.524398704903	     9.0040706125809E-26	
     52.553586548187	     9.4382155914436E-26	
     52.582806848916	     9.8932748596126E-26	
      52.61205966126	      1.037027862964E-25	
     52.641252605351	      1.087030406004E-25	
     52.670477964107	     1.1394445866546E-25	
     52.699735791544	     1.1943841757186E-25	
     52.729026141802	     1.2519718957807E-25	
     52.758349069138	     1.3123353088531E-25	
     52.787704627932	     1.3756094910171E-25	
     52.816999820298	     1.4407293519691E-25	
      52.84632754618	     1.5070646130382E-25	
     52.875781119097	     1.5765860762344E-25	
     52.905080815514	     1.6493263344124E-25	
     52.934506467778	     1.7254189522543E-25	
     52.963964871182	     1.8050190348392E-25	
     52.993362405584	     1.8882820973464E-25	
     53.022792592186	     1.9754038237792E-25	
     53.052255485419	     2.0665315126441E-25	
     53.081751139834	     2.1618786149453E-25	
     53.111279610106	     2.2616041649651E-25	
     53.140746754398	      2.365941531364E-25	
     53.170340915943	      2.475084934074E-25	
     53.199873651559	     2.5892745001177E-25	
     53.229439212511	     2.7087237735378E-25	
     53.259037653559	     2.8336934860419E-25	
     53.288574308147	     2.9644271547721E-25	
     53.318238568659	     3.1011758287998E-25	
      53.34784094185	     3.2442579564913E-25	
     53.377476203872	      3.393918845097E-25	
     53.407144409567	     3.5504923784107E-25	
     53.436845613897	     3.7142844942071E-25	
     53.466484516979	     3.8856530853364E-25	
     53.496251777751	     4.0649003350458E-25	
     53.525956635386	     4.2524349696023E-25	
     53.555694499774	     4.4486217378638E-25	
      53.58546542596	     4.6538505913652E-25	
      53.61526946911	     4.8685358596963E-25	
     53.645010691694	     5.0931605166398E-25	
     53.674881027834	     5.3281122988066E-25	
     53.704688440483	     5.5739152416342E-25	
     53.734528977584	     5.8310616990667E-25	
     53.764402694385	     6.1000728922234E-25	
     53.794213118725	     6.3815035145966E-25	
     53.824153253678	     6.6759031419532E-25	
     53.854029992312	     6.9838842896768E-25	
     53.883939917357	     7.3060908870836E-25	
     53.913883084139	     7.6431477657197E-25	
     53.943859548105	     7.9957415486923E-25	
     53.973869364828	     8.3646073630862E-25	
     54.003815308791	      8.750521330074E-25	
     54.033891889846	     9.1541887702314E-25	
     54.063904493116	     9.5765020773347E-25	
     54.093950455335	     1.0018305277102E-24	
     54.124029832154	     1.0480482676322E-24	
      54.15404485614	     1.0964005419606E-24	
     54.184191120654	     1.1469800281699E-24	
      54.21427292636	     1.1998960753383E-24	
     54.244388152062	     1.2552518991755E-24	
     54.274536853482	     1.3131669626068E-24	
     54.304719086469	     1.3737422847721E-24	
     54.334934906996	     1.4371154119737E-24	
     54.365085784025	     1.5034223272987E-24	
     54.395270141544	      1.572775272224E-24	
      54.42548803535	     1.6453290656386E-24	
     54.455739521366	     1.7212378036691E-24	
     54.486024655637	     1.8006421707381E-24	
     54.516343494335	     1.8837075386927E-24	
     54.546596847207	     1.9706183359571E-24	
     54.576883796375	      2.061531839859E-24	
      54.60720439783	     2.1566363688722E-24	
     54.637558707693	     2.2561319785249E-24	
     54.667946782205	     2.3602177868746E-24	
     54.698368677737	     2.4690919758333E-24	
     54.728724540371	     2.5830115338018E-24	
       54.7591141148	     2.7021766202267E-24	
     54.789537457212	     2.8268326668665E-24	
     54.819994623921	     2.9572490264242E-24	
     54.850485671368	     3.0936687473125E-24	
     54.881010656117	      3.236383762431E-24	
     54.911469056114	     3.3856970390908E-24	
     54.941961283087	     3.5418990114676E-24	
     54.972487393417	     3.7053024849856E-24	
     55.003047443615	     3.8762437011515E-24	
     55.033641490315	     4.0550573238733E-24	
     55.064168451369	     4.2421417244859E-24	
     55.094830548812	     4.4378350466152E-24	
      55.12542544917	     4.6425732907284E-24	
     55.156054347926	     4.8567555013571E-24	
     55.186717301784	     5.0808190999954E-24	
     55.217414367572	      5.315199454892E-24	
     55.248043786742	     5.5577584910687E-24	
     55.278809133956	     5.8023866076195E-24	
      55.30950672199	     6.0579101945469E-24	
     55.340238423114	     6.3246771039072E-24	
     55.371004294224	     6.6031890738238E-24	
     55.401702009702	     6.8939832363869E-24	
     55.432536277976	     7.1975557894027E-24	
      55.46330227705	     7.5145146277181E-24	
     55.494102446393	     7.8454242026942E-24	
     55.525039681584	     8.1908779901741E-24	
     55.555805523846	     8.5516001034046E-24	
     55.586708546254	     8.9281662047197E-24	
     55.617645967526	     9.3213067157575E-24	
     55.648514548239	     9.7317910428636E-24	
     55.679417412978	      1.016035255657E-23	
     55.710354618891	     1.0607778410039E-23	
     55.741326223254	     1.1074888425454E-23	
     55.772332283467	     1.1562571231177E-23	
      55.80326898485	     1.2071768314327E-23	
     55.834344013767	     1.2603380792962E-23	
     55.865349567862	     1.3158304008823E-23	
     55.896389576683	     1.3737775042298E-23	
     55.927464097695	     1.4342672489552E-23	
     55.958573188487	     1.4974351993336E-23	
     55.989612339689	     1.5633740568576E-23	
     56.020790626839	     1.6322188680599E-23	
     56.051898857245	     1.7040914043827E-23	
      56.08304165552	     1.7791310806142E-23	
     56.114219079314	     1.8574824709423E-23	
     56.145326036879	     1.9392847832403E-23	
     56.176572768106	     2.0246790082627E-23	
     56.207748914908	     2.1138344904191E-23	
      56.23906518493	     2.2069132878262E-23	
     56.270310752067	     2.3040964633799E-23	
     56.301591057625	     2.4055639539784E-23	
     56.332800306663	     2.5115003076137E-23	
     56.364150145238	       2.62209692457E-23	
     56.395428807916	      2.737558321011E-23	
     56.426848411614	     2.8581078201117E-23	
     56.458196719768	     2.9839615679087E-23	
     56.489579878802	     3.1153624754361E-23	
     56.520891385909	     3.2525630383841E-23	
     56.552344302651	     3.3957901537845E-23	
     56.583725446896	     3.5453304079668E-23	
