# TLUSTY OSTAR2002+BSTAR2006
# teff = 40000 K (value for the effective temperature for the model. Temperatures are given in K)
# logg = 4.5 log(cm/s2) (value for Log(G) for the model.)
# z = 1  (Z/Z0)
#
#         WAVELENGTH	#                   FLUX	
#         (ANGSTROM)	#          (ERG/CM2/S/A)	
####################	########################	
     44.882873414538	     6.6659834046286E-28	
     44.907816823029	     6.9175097401651E-28	
     44.932787971259	     7.2706823981071E-28	
     44.957786905528	     7.6418635932435E-28	
     44.982746177196	     8.0320020997179E-28	
     45.007733177599	     8.4420710405972E-28	
     45.032747952971	     8.8730606971753E-28	
      45.05779054965	     9.3260495023571E-28	
     45.082793218463	     9.8021959411694E-28	
      45.10789152167	     1.0302621846635E-27	
      45.13294983914	     1.0828598605906E-27	
     45.158036012858	     1.1381431375213E-27	
     45.183081991723	     1.1962521532377E-27	
     45.208223941659	     1.2573231493184E-27	
     45.233325638345	     1.3215135049959E-27	
     45.258455225762	     1.3889817794468E-27	
     45.283612750422	     1.4598948930658E-27	
     45.308798258938	     1.5344244920558E-27	
     45.333943244952	     1.6127646280723E-27	
     45.359184785076	     1.6950977506098E-27	
     45.384385743676	     1.7816395790468E-27	
     45.409614720477	     1.8726046166182E-27	
     45.434802903778	     1.9682007618789E-27	
     45.460087980675	     2.0686793546084E-27	
     45.485332204516	     2.1742907344003E-27	
     45.510604480433	     2.2853023150037E-27	
     45.535904855209	        2.4019680339E-27	
     45.561233375735	     2.5245950831124E-27	
     45.586520769912	     2.6534972931474E-27	
     45.611836249694	     2.7889717589623E-27	
     45.637179861898	     2.9313576250077E-27	
     45.662551653443	     3.0810105215181E-27	
     45.687951671355	     3.2383024663254E-27	
     45.713310257544	     3.4036321467655E-27	
     45.738766792027	     3.5773838380828E-27	
     45.764181834002	     3.7600174723802E-27	
      45.78955519781	     3.9519893266923E-27	
     45.815026728651	     4.1537462894373E-27	
     45.840456520044	     4.3658172589582E-27	
     45.865984728293	      4.588695841423E-27	
     45.891471135712	     4.8229624629695E-27	
     45.916985883005	     5.0691899953073E-27	
     45.942458611669	     5.3279961030791E-27	
     45.968030102304	     5.6000009774851E-27	
     45.993559512376	     5.8859049791999E-27	
     46.019117294904	     6.1864089311718E-27	
     46.044703497212	     6.5022444098526E-27	
      46.07024736872	     6.8342138250602E-27	
     46.095890474148	     7.1831071941697E-27	
     46.121491186235	     7.5498302020539E-27	
     46.147120350345	     7.9352735343553E-27	
     46.172778013935	     8.3403976388222E-27	
     46.198393032158	     8.7662207983137E-27	
     46.224107758229	     9.2137475283662E-27	
      46.24977977578	     9.6841384521065E-27	
     46.275480324708	     1.0178554618174E-26	
     46.301209452603	      1.069819612475E-26	
      46.32689561815	     1.1244397531215E-26	
     46.352681967456	     1.1818437465437E-26	
     46.378425290646	     1.2421815022589E-26	
     46.404197224346	     1.3055986655465E-26	
     46.429997816279	      1.372252398472E-26	
     46.455755126455	     1.4423140727427E-26	
     46.481613098284	      1.515946332238E-26	
     46.507427723964	     1.5933411150416E-26	
     46.533271039062	     1.6746863159414E-26	
     46.559143091431	      1.760180353401E-26	
     46.584971540186	     1.8500438274772E-26	
     46.610901130475	      1.944501925214E-26	
     46.636787052132	      2.043117580335E-26	
     46.662701741879	     2.1436733549406E-26	
     46.688645247699	     2.2492385222937E-26	
     46.714617617682	     2.3600202325382E-26	
     46.740546026876	     2.4762323781318E-26	
     46.766503234583	      2.598193775397E-26	
     46.792489288808	     2.7261427076078E-26	
     46.818504237665	     2.8603850806128E-26	
     46.844548129374	      3.001259706897E-26	
     46.870547733178	     3.1490622202485E-26	
     46.896576213546	     3.3041367121806E-26	
     46.922633618612	     3.4668687825616E-26	
     46.948719996617	      3.637590959677E-26	
     46.974835395912	     3.8167366412766E-26	
     47.000906177686	     4.0046986014856E-26	
     47.027079682944	     4.2018989186354E-26	
     47.053208503692	     4.4088419027415E-26	
     47.079366375567	     4.6259573705509E-26	
     47.105479331519	     4.8537857606735E-26	
     47.131695368778	     5.0928031000575E-26	
     47.157866422534	     5.3436118911926E-26	
     47.184066556704	     5.6067654879254E-26	
     47.210295819784	     5.8828805442621E-26	
     47.236554260378	     6.1725877152162E-26	
     47.262767416563	     6.4765857182234E-26	
     47.289009682029	     6.7955312890389E-26	
     47.315355781599	     7.1301749902174E-26	
     47.341581734975	      7.481336996179E-26	
     47.367911619808	      7.849766076855E-26	
     47.394270808632	     8.2363139809939E-26	
     47.420584341323	     8.6419506726938E-26	
     47.446927109052	     9.0675395528953E-26	
     47.473299160566	     9.5140816758027E-26	
     47.499700544723	     9.9826068119695E-26	
     47.526055967381	     1.0474239836475E-25	
     47.552516079912	     1.0990035860566E-25	
     47.578930161325	     1.1531260955761E-25	
     47.605373603601	     1.2099140882791E-25	
     47.631846455723	     1.2694978539773E-25	
     47.658273003882	     1.3320179420818E-25	
      47.68472889166	     1.3976178129013E-25	
      47.71129009926	     1.4664427241404E-25	
     47.737804897468	     1.5386592682449E-25	
     47.764273082132	     1.6144381061481E-25	
     47.790846818354	     1.6939433217509E-25	
     47.817373870131	      1.777362081698E-25	
       47.8440067411	     1.8648821373986E-25	
     47.870592856595	     1.9567311008481E-25	
     47.897132011203	     2.0530920160094E-25	
      47.92377721757	      2.154198995616E-25	
     47.950452085929	     2.2602876608384E-25	
     47.977079885928	     2.3715938989405E-25	
     48.003737276208	     2.4884034921686E-25	
     48.030424306121	      2.610942428108E-25	
     48.057063988997	     2.7395259709055E-25	
     48.083810360894	     2.8744257501165E-25	
     48.110509313421	     3.0159960443582E-25	
      48.13723793207	     3.1645140266176E-25	
     48.163996266313	     3.3203617459713E-25	
     48.190784365732	     3.4838708076358E-25	
     48.217524728589	     3.6554478318873E-25	
     48.244372421162	       3.83546290388E-25	
     48.271172304081	     4.0243475265165E-25	
     48.298001978367	     4.2225277621008E-25	
     48.324783596886	     4.4304859313138E-25	
     48.351672916415	     4.6486761423975E-25	
     48.378514106452	     4.8776074509992E-25	
     48.405385113436	     5.1178235295428E-25	
     48.432285987079	     5.3698636720494E-25	
     48.459216777203	     5.6342967318203E-25	
     48.486177533741	     5.9117690212739E-25	
     48.513089801638	      6.203360094921E-25	
     48.540031961452	     6.5007527337932E-25	
     48.567004063012	     6.8089410471362E-25	
      48.59400615626	      7.131716296623E-25	
     48.621038291247	     7.4698089652812E-25	
     48.648021575729	     7.8239396741125E-25	
     48.675113856845	     8.1948303185962E-25	
     48.702157212178	      8.583316742374E-25	
     48.729230634195	     8.9902331014756E-25	
     48.756254879001	      9.416449701913E-25	
     48.783388496724	     9.8628374680278E-25	
     48.810472861313	     1.0330417240657E-24	
     48.837587316895	     1.0820159472034E-24	
     48.864731913645	     1.1333107885725E-24	
      48.89190670185	     1.1870364351716E-24	
     48.919031907499	     1.2433113376116E-24	
     48.946267141012	      1.302250866481E-24	
     48.973452715253	     1.3639876338623E-24	
     49.000668504919	     1.4286507246398E-24	
     49.027914560414	     1.4963773593198E-24	
     49.055110663128	     1.5673170714588E-24	
     49.082417312547	     1.6416207770905E-24	
     49.109673931739	     1.7194482450306E-24	
     49.136960840234	     1.8009538423248E-24	
     49.164278088547	     1.8863274879028E-24	
     49.191625727309	     1.9757582140807E-24	
     49.218923001149	      2.069425411598E-24	
     49.246250587257	     2.1675257862504E-24	
     49.273689521928	     2.2702848521489E-24	
     49.300996898465	     2.3779103902877E-24	
     49.328415724939	     2.4906419385158E-24	
      49.35586506643	      2.608716735165E-24	
     49.383263627274	     2.7323879241058E-24	
      49.41069262414	     2.8619212223028E-24	
     49.438152107771	     2.9976046759427E-24	
     49.465642129023	     3.1397095872255E-24	
     49.493162738867	     3.2885367401392E-24	
      49.52063218856	     3.4444429727673E-24	
     49.548132147101	     3.6077464963571E-24	
     49.575662665346	     3.7787743429946E-24	
     49.603223794262	     3.9579132517891E-24	
     49.630815584932	     4.1455328594855E-24	
     49.658355833099	     4.3420765588242E-24	
     49.686009009337	     4.5479127514139E-24	
     49.713610562501	     4.7635113049872E-24	
     49.741242799119	     4.9893266640489E-24	
     49.768823148563	     5.2258732318632E-24	
     49.796516813807	     5.4736118632178E-24	
     49.824158510622	     5.7331009234491E-24	
      49.85191380956	     6.0048689868117E-24	
     49.879617058659	     6.2895485687312E-24	
     49.907268032742	     6.5877332978521E-24	
     49.935032855013	     6.9000287697488E-24	
      49.96274532025	     7.2271555585768E-24	
       49.9905719212	     7.5697541025671E-24	
     50.018346082938	     7.9286032492874E-24	
     50.046151123813	     8.3044802634356E-24	
     50.073903457491	     8.6981817575611E-24	
     50.101770318216	     9.1105350222394E-24	
     50.129584388874	     9.5424345961862E-24	
     50.157429358728	     9.9948173684357E-24	
     50.185305279299	     1.0468644770323E-23	
     50.213212202218	     1.0964918549527E-23	
     50.241150179234	     1.1484725301953E-23	
     50.269034971226	     1.2029201779769E-23	
     50.296950733586	     1.2599477231348E-23	
     50.324897517936	     1.3196771676714E-23	
     50.352875376018	     1.3822388571257E-23	
     50.380884359686	     1.4477654949414E-23	
     50.408839760426	     1.5164090869487E-23	
     50.436911056863	      1.588279240402E-23	
     50.464928685775	     1.6635867761389E-23	
     50.492977459489	     1.7424477406031E-23	
     50.520972291971	     1.8250626530107E-23	
     50.549083416516	     1.9115687382194E-23	
     50.577140514523	     2.0015527833853E-23	
     50.605314198034	     2.0927093343771E-23	
     50.633433769533	     2.1879866759516E-23	
     50.661584608495	     2.2876133574675E-23	
     50.689681059539	     2.3917876907783E-23	
     50.717894494652	     2.5006831998314E-23	
      50.74605345566	     2.6145487885748E-23	
     50.774243702176	     2.7336076538436E-23	
     50.802465286368	     2.8580753992924E-23	
     50.830718260522	     2.9882103526135E-23	
     50.858916396221	     3.1242802308444E-23	
     50.887232211512	     3.2665202288968E-23	
      50.91549310127	     3.4152649094596E-23	
      50.94378539858	     3.5707715577339E-23	
     50.972109155828	     3.7333502941476E-23	
     51.000377664063	     3.9033520307519E-23	
     51.028764402201	     4.0810868665823E-23	
     51.057095803437	     4.2669164985841E-23	
     51.085458681594	     4.4612039289121E-23	
     51.113853089158	     4.6643236759734E-23	
     51.142279078733	     4.8767061105664E-23	
      51.17073670304	     5.0987508126769E-23	
     51.199138575884	     5.3309168006497E-23	
     51.227571994662	     5.5736549922404E-23	
     51.256037011961	     5.8274450910293E-23	
     51.284533680485	     6.0927788713088E-23	
     51.313062053053	     6.3702030252407E-23	
     51.341534256522	     6.6602702004485E-23	
     51.370038074415	     6.9635441303503E-23	
     51.398661680974	      7.280581688849E-23	
     51.427228983866	     7.6120962233265E-23	
     51.455739742063	     7.9587241870584E-23	
     51.484370545666	     8.3210848532936E-23	
      51.51294471412	     8.6999889077926E-23	
     51.541639230398	     9.0961007005295E-23	
      51.57027702089	     9.5102717178157E-23	
      51.59885784312	     9.9433354008944E-23	
     51.627559270721	     1.0396078358262E-22	
     51.656292645944	     1.0869425139567E-22	
      51.68496891583	     1.1364358974214E-22	
     51.713677041862	       1.18818261549E-22	
     51.742417077153	     1.2422832313674E-22	
     51.771189074934	     1.2988476744546E-22	
     51.799993088553	     1.3579867622431E-22	
     51.828739568728	     1.4198185049057E-22	
      51.85751797242	     1.4844776307299E-22	
     51.886328352836	      1.552069120674E-22	
       51.9151707633	     1.6227365949467E-22	
     51.944045257258	     1.6966230015897E-22	
     51.972861786504	     1.7738767679083E-22	
     52.001800507889	     1.8546414144352E-22	
     52.030681171293	     1.9390982743073E-22	
     52.059593931901	     2.0273813672918E-22	
     52.088538843251	     2.1196996234585E-22	
        52.117515959	      2.216219391152E-22	
      52.14643462833	     2.3171281472644E-22	
     52.175385407928	     2.4226386594645E-22	
     52.204368351307	     2.5329423867727E-22	
     52.233383512095	     2.6482851173144E-22	
     52.262430944042	     2.7688563205781E-22	
     52.291510701017	     2.8949272300556E-22	
     52.320531525746	     3.0267508525901E-22	
     52.349584580407	     3.1645726439327E-22	
     52.378669918722	     3.3086739781384E-22	
      52.40778759453	     3.4593211938204E-22	
     52.436937661792	     3.6168341778214E-22	
     52.466120174588	     3.7815039469786E-22	
     52.495243265013	     3.9537023433482E-22	
     52.524398704903	     4.1337321504211E-22	
     52.553586548187	     4.3219482379781E-22	
     52.582806848916	     4.5187310592001E-22	
      52.61205966126	     4.7244865015535E-22	
     52.641252605351	     4.9396087053864E-22	
     52.670477964107	     5.1645384147821E-22	
     52.699735791544	     5.3996893964081E-22	
     52.729026141802	      5.645554764753E-22	
     52.758349069138	     5.9026117903603E-22	
     52.787704627932	      6.171362537249E-22	
     52.816999820298	     6.4473462283852E-22	
      52.84632754618	     6.7279940018082E-22	
     52.875781119097	     7.0213488087427E-22	
     52.905080815514	     7.3275486168545E-22	
     52.934506467778	     7.6470798138087E-22	
     52.963964871182	      7.980525216979E-22	
     52.993362405584	     8.3285501716599E-22	
     53.022792592186	     8.6917339445714E-22	
     53.052255485419	     9.0707468732952E-22	
     53.081751139834	     9.4662962530598E-22	
     53.111279610106	     9.8790726966437E-22	
     53.140746754398	     1.0309893488039E-21	
     53.170340915943	     1.0759437549951E-21	
     53.199873651559	     1.1228633085938E-21	
     53.229439212511	     1.1718279798749E-21	
     53.259037653559	     1.2229263124753E-21	
     53.288574308147	     1.2762576031869E-21	
     53.318238568659	     1.3319112672378E-21	
      53.34784094185	     1.3899878041966E-21	
     53.377476203872	     1.4506038902553E-21	
     53.407144409567	     1.5138563983255E-21	
     53.436845613897	     1.5798681278325E-21	
     53.466484516979	     1.6487671826623E-21	
     53.496251777751	      1.720663707914E-21	
     53.525956635386	     1.7956908206286E-21	
     53.555694499774	     1.8740025777665E-21	
      53.58546542596	     1.9557188104735E-21	
      53.61526946911	     2.0409980958891E-21	
     53.645010691694	     2.1300058894446E-21	
     53.674881027834	     2.2228843712235E-21	
     53.704688440483	     2.3198185619154E-21	
     53.734528977584	      2.420982541265E-21	
     53.764402694385	     2.5265441250407E-21	
     53.794213118725	     2.6367318704405E-21	
     53.824153253678	     2.7517063278487E-21	
     53.854029992312	     2.8717040531516E-21	
     53.883939917357	     2.9969317946241E-21	
     53.913883084139	     3.1276177059545E-21	
     53.943859548105	     3.2640018130837E-21	
     53.973869364828	     3.4063230118308E-21	
     54.003815308791	     3.5548706294274E-21	
     54.033891889846	     3.7098819345435E-21	
     54.063904493116	     3.8716571236553E-21	
     54.093950455335	     4.0404947614449E-21	
     54.124029832154	     4.2166790377854E-21	
      54.15404485614	     4.4005600795685E-21	
     54.184191120654	     4.5924522814704E-21	
      54.21427292636	     4.7927192488562E-21	
     54.244388152062	     5.0017130672215E-21	
     54.274536853482	      5.219825567585E-21	
     54.304719086469	     5.4474339641068E-21	
     54.334934906996	     5.6849774915246E-21	
     54.365085784025	     5.9328893453741E-21	
     54.395270141544	     6.1916105688667E-21	
      54.42548803535	     6.4615997755186E-21	
     54.455739521366	     6.7433769375569E-21	
     54.486024655637	     7.0374215163151E-21	
     54.516343494335	     7.3442867600113E-21	
     54.546596847207	     7.6645638661286E-21	
     54.576883796375	     7.9988007064603E-21	
      54.60720439783	     8.3476059342432E-21	
     54.637558707693	     8.7116105773908E-21	
     54.667946782205	     9.0914931135784E-21	
     54.698368677737	     9.4879288275902E-21	
     54.728724540371	     9.9016762783569E-21	
       54.7591141148	     1.0333471762169E-20	
     54.789537457212	     1.0784081117134E-20	
     54.819994623921	     1.1254329250242E-20	
     54.850485671368	     1.1745087272265E-20	
     54.881010656117	     1.2257234700877E-20	
     54.911469056114	     1.2791693762591E-20	
     54.941961283087	     1.3349592484193E-20	
     54.972487393417	     1.3931660091617E-20	
     55.003047443615	     1.4539182664444E-20	
     55.033641490315	     1.5173191512845E-20	
     55.064168451369	     1.5834895483816E-20	
     55.094830548812	      1.652532605991E-20	
      55.12542544917	     1.7245990152998E-20	
     55.156054347926	     1.7998087375202E-20	
     55.186717301784	      1.878286957209E-20	
     55.217414367572	     1.9601953342332E-20	
     55.248043786742	      2.044751953061E-20	
     55.278809133956	     2.1298739133439E-20	
      55.30950672199	     2.2185913702893E-20	
     55.340238423114	     2.3109950665754E-20	
     55.371004294224	     2.4072442411512E-20	
     55.401702009702	     2.5075066502355E-20	
     55.432536277976	     2.6119464092892E-20	
      55.46330227705	     2.7207271403676E-20	
     55.494102446393	      2.834044761936E-20	
     55.525039681584	     2.9520803443916E-20	
     55.555805523846	     3.0750333816017E-20	
     55.586708546254	     3.2031101149389E-20	
     55.617645967526	     3.3365106913635E-20	
     55.648514548239	     3.4754728195371E-20	
     55.679417412978	     3.6202327334127E-20	
     55.710354618891	     3.7710131028059E-20	
     55.741326223254	     3.9280719158597E-20	
     55.772332283467	     4.0916659442952E-20	
      55.80326898485	     4.2620908077864E-20	
     55.834344013767	      4.439593874737E-20	
     55.865349567862	     4.6245088608146E-20	
     55.896389576683	     4.8171077606758E-20	
     55.927464097695	     5.0177372929196E-20	
     55.958573188487	     5.2267184843162E-20	
     55.989612339689	     5.4444152120031E-20	
     56.020790626839	     5.6711655904138E-20	
     56.051898857245	     5.9073753765162E-20	
      56.08304165552	     6.1534107280999E-20	
     56.114219079314	     6.4096922057397E-20	
     56.145326036879	      6.676663395191E-20	
     56.176572768106	     6.9547396841276E-20	
     56.207748914908	     7.2444105434471E-20	
      56.23906518493	     7.5461066653521E-20	
     56.270310752067	     7.8604009022481E-20	
     56.301591057625	     8.1877810734073E-20	
     56.332800306663	      8.528815524008E-20	
     56.364150145238	     8.8840226926596E-20	
     56.395428807916	     9.2540584426164E-20	
     56.426848411614	     9.6394539433028E-20	
     56.458196719768	     1.0040936006731E-19	
     56.489579878802	     1.0459122493939E-19	
     56.520891385909	     1.0894774832417E-19	
     56.552344302651	     1.1348517766486E-19	
     56.583725446896	     1.1821219534773E-19	
