# TLUSTY OSTAR2002+BSTAR2006
# teff = 40000 K (value for the effective temperature for the model. Temperatures are given in K)
# logg = 4.75 log(cm/s2) (value for Log(G) for the model.)
# z = 1  (Z/Z0)
#
#         WAVELENGTH	#                   FLUX	
#         (ANGSTROM)	#          (ERG/CM2/S/A)	
####################	########################	
     44.882873414538	     4.3021902730319E-28	
     44.907816823029	     4.4642099081985E-28	
     44.932787971259	     4.6916368321092E-28	
     44.957786905528	     4.9306650751894E-28	
     44.982746177196	     5.1818845873362E-28	
     45.007733177599	      5.445890324752E-28	
     45.032747952971	     5.7233441932757E-28	
      45.05779054965	     6.0149421228596E-28	
     45.082793218463	     6.3213958065391E-28	
      45.10789152167	     6.6434502109939E-28	
      45.13294983914	      6.981922800586E-28	
     45.158036012858	     7.3376433299269E-28	
     45.183081991723	      7.711498303317E-28	
     45.208223941659	     8.1043753834289E-28	
     45.233325638345	     8.5172878004041E-28	
     45.258455225762	     8.9512285820979E-28	
     45.283612750422	     9.4072827435385E-28	
     45.308798258938	     9.8865485868444E-28	
     45.333943244952	     1.0390260684333E-27	
     45.359184785076	     1.0919610266661E-27	
     45.384385743676	     1.1475945149179E-27	
     45.409614720477	     1.2060620958712E-27	
     45.434802903778	     1.2675111438742E-27	
     45.460087980675	     1.3320861491415E-27	
     45.485332204516	     1.3999553839338E-27	
     45.510604480433	     1.4712819338825E-27	
     45.535904855209	     1.5462392146338E-27	
     45.561233375735	     1.6250161648568E-27	
     45.586520769912	     1.7078096605682E-27	
     45.611836249694	     1.7948221257861E-27	
     45.637179861898	     1.8862633336484E-27	
     45.662551653443	     1.9823673720812E-27	
     45.687951671355	     2.0833618231284E-27	
     45.713310257544	     2.1895069219844E-27	
     45.738766792027	     2.3010600392337E-27	
     45.764181834002	     2.4182860388497E-27	
      45.78955519781	     2.5415078827747E-27	
     45.815026728651	      2.670976979521E-27	
     45.840456520044	     2.8070642188253E-27	
     45.865984728293	     2.9500703286852E-27	
     45.891471135712	      3.100382594873E-27	
     45.916985883005	     3.2583425387448E-27	
     45.942458611669	     3.4243448181391E-27	
     45.968030102304	     3.5988048344649E-27	
     45.993559512376	     3.7821601855275E-27	
     46.019117294904	     3.9748501018157E-27	
     46.044703497212	     4.1773755170263E-27	
      46.07024736872	      4.390213024575E-27	
     46.095890474148	     4.6138681798336E-27	
     46.121491186235	     4.8489335171897E-27	
     46.147120350345	     5.0959931784533E-27	
     46.172778013935	     5.3556243414169E-27	
     46.198393032158	     5.6284894321946E-27	
     46.224107758229	     5.9152319785062E-27	
      46.24977977578	     6.2166146579817E-27	
     46.275480324708	     6.5333438682676E-27	
     46.301209452603	     6.8661926894623E-27	
      46.32689561815	     7.2160231040008E-27	
     46.352681967456	     7.5836624854253E-27	
     46.378425290646	     7.9700409761504E-27	
     46.404197224346	     8.3761040634982E-27	
     46.429997816279	     8.8028324971734E-27	
     46.455755126455	     9.2513533057263E-27	
     46.481613098284	     9.7226689828249E-27	
     46.507427723964	     1.0218031239445E-26	
     46.533271039062	     1.0738616204927E-26	
     46.559143091431	     1.1285727324397E-26	
     46.584971540186	     1.1860733538281E-26	
     46.610901130475	     1.2464992914394E-26	
     46.636787052132	     1.3095968678441E-26	
     46.662701741879	     1.3739742174234E-26	
     46.688645247699	     1.4415519961223E-26	
     46.714617617682	     1.5124520952461E-26	
     46.740546026876	     1.5868421611302E-26	
     46.766503234583	     1.6648917315249E-26	
     46.792489288808	     1.7467809038119E-26	
     46.818504237665	     1.8326992452401E-26	
     46.844548129374	     1.9228354361719E-26	
     46.870547733178	     2.0174041578282E-26	
     46.896576213546	     2.1166242565223E-26	
     46.922633618612	     2.2207363654335E-26	
     46.948719996617	     2.3299629035756E-26	
     46.974835395912	     2.4445593902184E-26	
     47.000906177686	     2.5647881912814E-26	
     47.027079682944	     2.6909378570258E-26	
     47.053208503692	      2.823293694734E-26	
     47.079366375567	     2.9621492356112E-26	
     47.105479331519	     3.1078483636031E-26	
     47.131695368778	     3.2607045882485E-26	
     47.157866422534	     3.4210689747955E-26	
     47.184066556704	     3.5893458814153E-26	
     47.210295819784	     3.7658798959323E-26	
     47.236554260378	     3.9510984033336E-26	
     47.262767416563	     4.1454398634651E-26	
     47.289009682029	     4.3493327491424E-26	
     47.315355781599	     4.5632345860359E-26	
     47.341581734975	     4.7876919281442E-26	
     47.367911619808	     5.0231625527376E-26	
     47.394270808632	     5.2702265912326E-26	
     47.420584341323	     5.5294311130866E-26	
     47.446927109052	     5.8014045933456E-26	
     47.473299160566	     6.0867382311244E-26	
     47.499700544723	     6.3861039382737E-26	
     47.526055967381	     6.7002084074515E-26	
     47.552516079912	      7.029742426983E-26	
     47.578930161325	      7.375495077245E-26	
     47.605373603601	     7.7382537049952E-26	
     47.631846455723	      8.118856330794E-26	
     47.658273003882	     8.5181807224905E-26	
      47.68472889166	     8.9371651635512E-26	
      47.71129009926	     9.3767050799263E-26	
     47.737804897468	     9.8378953333302E-26	
     47.764273082132	     1.0321788705358E-25	
     47.790846818354	     1.0829446937323E-25	
     47.817373870131	     1.1362091176977E-25	
       47.8440067411	      1.192089764695E-25	
     47.870592856595	     1.2507231208576E-25	
     47.897132011203	     1.3122415006416E-25	
      47.92377721757	     1.3767826180117E-25	
     47.950452085929	      1.444495677031E-25	
     47.977079885928	     1.5155431504469E-25	
     48.003737276208	     1.5900840931384E-25	
     48.030424306121	     1.6682844633583E-25	
     48.057063988997	     1.7503460464333E-25	
     48.083810360894	     1.8364368632198E-25	
     48.110509313421	     1.9267660992927E-25	
      48.13723793207	     2.0215249152018E-25	
     48.163996266313	     2.1209578803537E-25	
     48.190784365732	     2.2252759822645E-25	
     48.217524728589	     2.3347291343129E-25	
     48.244372421162	     2.4495439581175E-25	
     48.271172304081	     2.5700245235006E-25	
     48.298001978367	     2.6964345196949E-25	
     48.324783596886	     2.8290691284111E-25	
     48.351672916415	     2.9682113973512E-25	
     48.378514106452	     3.1141955877436E-25	
     48.405385113436	     3.2673749263472E-25	
     48.432285987079	     3.4280779516375E-25	
     48.459216777203	     3.5966797876281E-25	
     48.486177533741	     3.7735698287603E-25	
     48.513089801638	     3.9594686017871E-25	
     48.540031961452	     4.1491050166207E-25	
     48.567004063012	     4.3456279492443E-25	
      48.59400615626	     4.5514543144348E-25	
     48.621038291247	     4.7670300596722E-25	
     48.648021575729	      4.992831163912E-25	
     48.675113856845	     5.2293154137622E-25	
     48.702157212178	     5.4770031887505E-25	
     48.729230634195	     5.7364108238529E-25	
     48.756254879001	     6.0081354478887E-25	
     48.783388496724	     6.2927137954898E-25	
     48.810472861313	     6.5907739733674E-25	
     48.837587316895	     6.9029607834688E-25	
     48.864731913645	     7.2299196869617E-25	
      48.89190670185	     7.5723561539149E-25	
     48.919031907499	     7.9310454577707E-25	
     48.946267141012	       8.30668295075E-25	
     48.973452715253	     8.7001426663608E-25	
     49.000668504919	     9.1122316528666E-25	
     49.027914560414	     9.5438259538541E-25	
     49.055110663128	     9.9959084924126E-25	
     49.082417312547	     1.0469345532359E-24	
     49.109673931739	     1.0965239305619E-24	
     49.136960840234	     1.1484618772959E-24	
     49.164278088547	     1.2028587390677E-24	
     49.191625727309	     1.2598321282242E-24	
     49.218923001149	     1.3195065485422E-24	
     49.246250587257	     1.3820070098318E-24	
     49.273689521928	     1.4474617606169E-24	
     49.300996898465	     1.5160267581668E-24	
     49.328415724939	     1.5878364886574E-24	
      49.35586506643	     1.6630406803015E-24	
     49.383263627274	     1.7418187101467E-24	
      49.41069262414	     1.8243227857527E-24	
     49.438152107771	     1.9107250134663E-24	
     49.465642129023	     2.0012274850703E-24	
     49.493162738867	     2.0960159694676E-24	
      49.52063218856	     2.1952979767071E-24	
     49.548132147101	     2.2992816116619E-24	
     49.575662665346	     2.4081805783024E-24	
     49.603223794262	     2.5222535108482E-24	
     49.630815584932	     2.6417119544865E-24	
     49.658355833099	     2.7668520061787E-24	
     49.686009009337	     2.8978955841261E-24	
     49.713610562501	     3.0351611529713E-24	
     49.741242799119	     3.1789226337606E-24	
     49.768823148563	     3.3295032576833E-24	
     49.796516813807	     3.4871921588652E-24	
     49.824158510622	     3.6523668069972E-24	
      49.85191380956	     3.8253566229458E-24	
     49.879617058659	     4.0065531265839E-24	
     49.907268032742	     4.1963382392698E-24	
     49.935032855013	     4.3950932104363E-24	
      49.96274532025	     4.6032684152018E-24	
       49.9905719212	     4.8212988458373E-24	
     50.018346082938	     5.0496637014066E-24	
     50.046151123813	     5.2888384702036E-24	
     50.073903457491	     5.5393602374429E-24	
     50.101770318216	     5.8017390468586E-24	
     50.129584388874	     6.0765414932047E-24	
     50.157429358728	     6.3643651759389E-24	
     50.185305279299	     6.6658233201195E-24	
     50.213212202218	      6.981541217371E-24	
     50.241150179234	     7.3122158464863E-24	
     50.269034971226	     7.6585815130271E-24	
     50.296950733586	     8.0213351827163E-24	
     50.324897517936	     8.4012682061972E-24	
     50.352875376018	     8.7991979472386E-24	
     50.380884359686	     9.2159676228037E-24	
     50.408839760426	     9.6525082553732E-24	
     50.436911056863	     1.0109680444327E-23	
     50.464928685775	     1.0588529609181E-23	
     50.492977459489	     1.1090071598476E-23	
     50.520972291971	     1.1615388961691E-23	
     50.549083416516	     1.2165532240314E-23	
     50.577140514523	     1.2737712373219E-23	
     50.605314198034	     1.3317352218954E-23	
     50.633433769533	     1.3923291080231E-23	
     50.661584608495	     1.4556789624542E-23	
     50.689681059539	     1.5219094232343E-23	
     50.717894494652	     1.5911601183189E-23	
      50.74605345566	     1.6635510851964E-23	
     50.774243702176	     1.7392563171115E-23	
     50.802465286368	     1.8183811374671E-23	
     50.830718260522	     1.9011178475765E-23	
     50.858916396221	     1.9876209045761E-23	
     50.887232211512	     2.0780532423658E-23	
      50.91549310127	     2.1726039715036E-23	
      50.94378539858	     2.2714698820845E-23	
     50.972109155828	     2.3748100566495E-23	
     51.000377664063	     2.4828781712584E-23	
     51.028764402201	      2.595843934965E-23	
     51.057095803437	     2.7139533549134E-23	
     51.085458681594	     2.8374400867817E-23	
     51.113853089158	     2.9665450994309E-23	
     51.142279078733	     3.1015082288235E-23	
      51.17073670304	     3.2426257298784E-23	
     51.199138575884	     3.3901753082016E-23	
     51.227571994662	     3.5444256770399E-23	
     51.256037011961	     3.7056978365687E-23	
     51.284533680485	     3.8742969597862E-23	
     51.313062053053	     4.0505840135565E-23	
     51.341534256522	     4.2348899038125E-23	
     51.370038074415	     4.4275734703471E-23	
     51.398661680974	     4.6290177122702E-23	
     51.427228983866	     4.8396364027694E-23	
     51.455739742063	     5.0598553791107E-23	
     51.484370545666	     5.2900623552179E-23	
      51.51294471412	     5.5307693969947E-23	
     51.541639230398	     5.7824135848099E-23	
      51.57027702089	     6.0455058736913E-23	
      51.59885784312	     6.3205896433154E-23	
     51.627559270721	     6.6081746097456E-23	
     51.656292645944	     6.9088312078548E-23	
      51.68496891583	     7.2231877994066E-23	
     51.713677041862	      7.551850565469E-23	
     51.742417077153	     7.8954595677853E-23	
     51.771189074934	     8.2546940262951E-23	
     51.799993088553	     8.6302720889826E-23	
     51.828739568728	     9.0229537512017E-23	
      51.85751797242	     9.4335060989335E-23	
     51.886328352836	       9.86273499298E-23	
       51.9151707633	     1.0311484442262E-22	
     51.944045257258	     1.0780650338508E-22	
     51.972861786504	      1.127119133772E-22	
     52.001800507889	     1.1784002054095E-22	
     52.030681171293	     1.2320170765821E-22	
     52.059593931901	     1.2880745457319E-22	
     52.088538843251	     1.3466808094402E-22	
        52.117515959	     1.4079560377583E-22	
      52.14643462833	     1.4720221868628E-22	
     52.175385407928	     1.5389881243779E-22	
     52.204368351307	     1.6090235377279E-22	
     52.233383512095	     1.6822282866715E-22	
     52.262430944042	     1.7587707156879E-22	
     52.291510701017	     1.8387908292467E-22	
     52.320531525746	     1.9224622048533E-22	
     52.349584580407	     2.0099310880805E-22	
     52.378669918722	     2.1013766013392E-22	
      52.40778759453	     2.1969907439128E-22	
     52.436937661792	     2.2969509146841E-22	
     52.466120174588	     2.4014610472277E-22	
     52.495243265013	     2.5107329102543E-22	
     52.524398704903	     2.6249741962279E-22	
     52.553586548187	     2.7444132604851E-22	
     52.582806848916	     2.8692773864605E-22	
      52.61205966126	     2.9998200073183E-22	
     52.641252605351	     3.1363179754185E-22	
     52.670477964107	     3.2790258808916E-22	
     52.699735791544	     3.4282207007502E-22	
     52.729026141802	     3.5842052097952E-22	
     52.758349069138	     3.7472807625097E-22	
     52.787704627932	     3.9177743343414E-22	
     52.816999820298	     4.0928657102343E-22	
      52.84632754618	     4.2709067210487E-22	
     52.875781119097	     4.4570181619613E-22	
     52.905080815514	     4.6512730857603E-22	
     52.934506467778	     4.8539726787238E-22	
     52.963964871182	     5.0654928024296E-22	
     52.993362405584	     5.2862642440909E-22	
     53.022792592186	     5.5166399273347E-22	
     53.052255485419	     5.7570550932076E-22	
     53.081751139834	      6.007942938187E-22	
     53.111279610106	     6.2697613278828E-22	
     53.140746754398	     6.5430158474605E-22	
     53.170340915943	     6.8281412448213E-22	
     53.199873651559	      7.125716116041E-22	
     53.229439212511	     7.4362592877385E-22	
     53.259037653559	     7.7603235120983E-22	
     53.288574308147	     8.0985407910234E-22	
     53.318238568659	     8.4514684382774E-22	
      53.34784094185	      8.819789384366E-22	
     53.377476203872	     9.2041621427534E-22	
     53.407144409567	     9.6052839953119E-22	
     53.436845613897	     1.0023875326126E-21	
     53.466484516979	     1.0460729970281E-21	
     53.496251777751	     1.0916593724734E-21	
     53.525956635386	     1.1392344776154E-21	
     53.555694499774	     1.1888835958835E-21	
      53.58546542596	     1.2406940116127E-21	
      53.61526946911	     1.2947630816421E-21	
     53.645010691694	     1.3511977769066E-21	
     53.674881027834	     1.4100680643921E-21	
     53.704688440483	     1.4715268946761E-21	
     53.734528977584	     1.5356518253104E-21	
     53.764402694385	     1.6025769852909E-21	
     53.794213118725	     1.6724288601053E-21	
     53.824153253678	     1.7453026222422E-21	
     53.854029992312	       1.82136892375E-21	
     53.883939917357	     1.9007404936737E-21	
     53.913883084139	     1.9835743812353E-21	
     53.943859548105	     2.0700268997033E-21	
     53.973869364828	     2.1602277635658E-21	
     54.003815308791	     2.2543787782078E-21	
     54.033891889846	     2.3526181268571E-21	
     54.063904493116	     2.4551544469521E-21	
     54.093950455335	     2.5621450172403E-21	
     54.124029832154	      2.673805895085E-21	
      54.15404485614	     2.7903365146262E-21	
     54.184191120654	     2.9119312796904E-21	
      54.21427292636	     3.0388367648563E-21	
     54.244388152062	     3.1712678142478E-21	
     54.274536853482	      3.309473870817E-21	
     54.304719086469	     3.4537032052141E-21	
     54.334934906996	     3.6042029174464E-21	
     54.365085784025	     3.7612835658818E-21	
     54.395270141544	     3.9252027716664E-21	
      54.42548803535	     4.0962675478621E-21	
     54.455739521366	     4.2747834649731E-21	
     54.486024655637	     4.4610800329113E-21	
     54.516343494335	     4.6554852102253E-21	
     54.546596847207	     4.8583810709679E-21	
     54.576883796375	     5.0701141756615E-21	
      54.60720439783	     5.2910708596813E-21	
     54.637558707693	     5.5216608796991E-21	
     54.667946782205	     5.7622920647108E-21	
     54.698368677737	      6.013395502018E-21	
     54.728724540371	     6.2754734674946E-21	
       54.7591141148	     6.5489696167715E-21	
     54.789537457212	      6.834371531132E-21	
     54.819994623921	     7.1322146374669E-21	
     54.850485671368	      7.443031845334E-21	
     54.881010656117	     7.7673785664353E-21	
     54.911469056114	     8.1058997554256E-21	
     54.941961283087	     8.4591682248012E-21	
     54.972487393417	     8.8278185947142E-21	
     55.003047443615	     9.2125323060118E-21	
     55.033641490315	      9.614000031624E-21	
     55.064168451369	     1.0033008167377E-20	
     55.094830548812	      1.047021822806E-20	
      55.12542544917	     1.0926522607994E-20	
     55.156054347926	     1.1402710119668E-20	
     55.186717301784	     1.1899627283258E-20	
     55.217414367572	     1.2418166050594E-20	
     55.248043786742	     1.2953633834105E-20	
     55.278809133956	     1.3492649345283E-20	
      55.30950672199	      1.405426002847E-20	
     55.340238423114	     1.4639324090337E-20	
     55.371004294224	     1.5248620320576E-20	
     55.401702009702	     1.5883473437611E-20	
     55.432536277976	      1.654453819946E-20	
      55.46330227705	     1.7233313005863E-20	
     55.494102446393	     1.7950622017394E-20	
     55.525039681584	     1.8697763381353E-20	
     55.555805523846	     1.9476183824352E-20	
     55.586708546254	     2.0286908654456E-20	
     55.617645967526	     2.1131234378636E-20	
     55.648514548239	     2.2010950732252E-20	
     55.679417412978	     2.2927196853861E-20	
     55.710354618891	     2.3881545463403E-20	
     55.741326223254	     2.4875683120099E-20	
     55.772332283467	     2.5911046218221E-20	
      55.80326898485	     2.6989769674972E-20	
     55.834344013767	     2.8113077462874E-20	
     55.865349567862	     2.9283433963951E-20	
     55.896389576683	     3.0502384628163E-20	
     55.927464097695	     3.1772049299304E-20	
     55.958573188487	     3.3094537836252E-20	
     55.989612339689	     3.4472199063389E-20	
     56.020790626839	     3.5907110505315E-20	
     56.051898857245	     3.7401734270853E-20	
      56.08304165552	     3.8958609644935E-20	
     56.114219079314	     4.0580392132628E-20	
     56.145326036879	     4.2269644022545E-20	
     56.176572768106	     4.4029164124815E-20	
     56.207748914908	       4.58618935264E-20	
      56.23906518493	     4.7770814940673E-20	
     56.270310752067	     4.9759345987546E-20	
     56.301591057625	     5.1830604597323E-20	
     56.332800306663	     5.3988305455457E-20	
     56.364150145238	     5.6235546551979E-20	
     56.395428807916	     5.8576458527421E-20	
     56.426848411614	     6.1014662875771E-20	
     56.458196719768	     6.3554407886791E-20	
     56.489579878802	     6.6199962126058E-20	
     56.520891385909	     6.8955817574526E-20	
     56.552344302651	     7.1826030500428E-20	
     56.583725446896	     7.4816029540344E-20	
