# TLUSTY OSTAR2002+BSTAR2006
# teff = 42500 K (value for the effective temperature for the model. Temperatures are given in K)
# logg = 4 log(cm/s2) (value for Log(G) for the model.)
# z = 1  (Z/Z0)
#
#         WAVELENGTH	#                   FLUX	
#         (ANGSTROM)	#          (ERG/CM2/S/A)	
####################	########################	
     44.882873414538	     7.7305861008928E-24	
     44.907816823029	     7.9898967305991E-24	
     44.932787971259	     8.3525511017282E-24	
     44.957786905528	     8.7316439090272E-24	
     44.982746177196	     9.1279834527434E-24	
     45.007733177599	     9.5422849058081E-24	
     45.032747952971	     9.9753964543259E-24	
      45.05779054965	     1.0428162308016E-23	
     45.082793218463	     1.0901511100123E-23	
      45.10789152167	      1.139628891141E-23	
      45.13294983914	     1.1913561293744E-23	
     45.158036012858	     1.2454307787354E-23	
     45.183081991723	     1.3019630567107E-23	
     45.208223941659	      1.361054774549E-23	
     45.233325638345	     1.4228339900743E-23	
     45.258455225762	     1.4874144135284E-23	
     45.283612750422	     1.5549278235297E-23	
     45.308798258938	     1.6255017104478E-23	
     45.333943244952	     1.6992846008395E-23	
     45.359184785076	     1.7764091664224E-23	
     45.384385743676	     1.8570371301809E-23	
     45.409614720477	     1.9413357850204E-23	
     45.434802903778	     2.0294464086338E-23	
     45.460087980675	     2.1215625580321E-23	
     45.485332204516	     2.2178468361086E-23	
     45.510604480433	     2.3185151643244E-23	
     45.535904855209	     2.4237522437019E-23	
     45.561233375735	     2.5337600521794E-23	
     45.586520769912	     2.6487658003618E-23	
     45.611836249694	     2.7689984063445E-23	
     45.637179861898	     2.8946930445691E-23	
     45.662551653443	     3.0260657164424E-23	
     45.687951671355	     3.1634216398503E-23	
     45.713310257544	     3.3070025833873E-23	
     45.738766792027	     3.4570914545353E-23	
     45.764181834002	     3.6140101250331E-23	
      45.78955519781	     3.7780598951366E-23	
     45.815026728651	     3.9495345941249E-23	
     45.840456520044	     4.1288086306235E-23	
     45.865984728293	     4.3162064335213E-23	
     45.891471135712	     4.5121013463431E-23	
     45.916985883005	     4.7168981136608E-23	
     45.942458611669	     4.9310094180391E-23	
     45.968030102304	     5.1548192543839E-23	
     45.993559512376	     5.3887879954738E-23	
     46.019117294904	     5.6333813582998E-23	
     46.044703497212	     5.8890779198593E-23	
      46.07024736872	     6.1563906781396E-23	
     46.095890474148	     6.4358098702083E-23	
     46.121491186235	     6.7279167287392E-23	
     46.147120350345	     7.0333031035932E-23	
     46.172778013935	     7.3525238936804E-23	
     46.198393032158	     7.6862609746547E-23	
     46.224107758229	     8.0351231559808E-23	
      46.24977977578	     8.3998286329999E-23	
     46.275480324708	     8.7810907137773E-23	
     46.301209452603	     9.1796605116975E-23	
      46.32689561815	     9.5963328218265E-23	
     46.352681967456	     1.0031881359936E-22	
     46.378425290646	     1.0487229719203E-22	
     46.404197224346	     1.0963224659439E-22	
     46.429997816279	     1.1460825855235E-22	
     46.455755126455	     1.1981043064405E-22	
     46.481613098284	      1.252484152842E-22	
     46.507427723964	     1.3093330291932E-22	
     46.533271039062	     1.3687622300499E-22	
     46.559143091431	      1.430889699489E-22	
     46.584971540186	     1.4958392122327E-22	
     46.610901130475	     1.5637306534293E-22	
     46.636787052132	      1.634291408399E-22	
     46.662701741879	     1.7061113153241E-22	
     46.688645247699	     1.7811231539365E-22	
     46.714617617682	      1.859434990503E-22	
     46.740546026876	        1.9411793953E-22	
     46.766503234583	      2.026528445587E-22	
     46.792489288808	     2.1156245262288E-22	
     46.818504237665	     2.2086437215833E-22	
     46.844548129374	     2.3057441222641E-22	
     46.870547733178	     2.4071248943918E-22	
     46.896576213546	     2.5129699211313E-22	
     46.922633618612	     2.6234519771423E-22	
     46.948719996617	     2.7387942928857E-22	
     46.974835395912	     2.8592019803475E-22	
     47.000906177686	     2.9849226497436E-22	
     47.027079682944	     3.1161410617839E-22	
     47.053208503692	     3.2531635649747E-22	
     47.079366375567	     3.3961817064079E-22	
     47.105479331519	     3.5455084425809E-22	
     47.131695368778	     3.7013884707752E-22	
     47.157866422534	     3.8641267815913E-22	
     47.184066556704	     4.0340269791949E-22	
     47.210295819784	      4.211385429746E-22	
     47.236554260378	     4.3965308673925E-22	
     47.262767416563	     4.5898386803892E-22	
     47.289009682029	     4.7916380600131E-22	
     47.315355781599	     5.0023045407101E-22	
     47.341581734975	     5.2222413624547E-22	
     47.367911619808	     5.4518560837854E-22	
     47.394270808632	     5.6915334344941E-22	
     47.420584341323	     5.9417766696682E-22	
     47.446927109052	     6.2030173824826E-22	
     47.473299160566	     6.4757524270361E-22	
     47.499700544723	     6.7604596249871E-22	
     47.526055967381	     7.0577036329711E-22	
     47.552516079912	     7.3679804218701E-22	
     47.578930161325	     7.6919395793633E-22	
     47.605373603601	     8.0301099048182E-22	
     47.631846455723	       8.38317280686E-22	
     47.658273003882	     8.7517679799489E-22	
      47.68472889166	     9.1365618921608E-22	
      47.71129009926	     9.5382294543407E-22	
     47.737804897468	      9.957598110651E-22	
     47.764273082132	     1.0395419874577E-21	
     47.790846818354	     1.0852456868809E-21	
     47.817373870131	     1.1329616431783E-21	
       47.8440067411	     1.1827696330725E-21	
     47.870592856595	     1.2347733580848E-21	
     47.897132011203	     1.2890642635178E-21	
      47.92377721757	     1.3457379282341E-21	
     47.950452085929	     1.4049030804652E-21	
     47.977079885928	      1.466673615497E-21	
     48.003737276208	     1.5311572126835E-21	
     48.030424306121	     1.5984767576914E-21	
     48.057063988997	     1.6687517525314E-21	
     48.083810360894	     1.7421260822933E-21	
     48.110509313421	     1.8187252700385E-21	
      48.13723793207	     1.8986791514953E-21	
     48.163996266313	     1.9821709947594E-21	
     48.190784365732	     2.0693021049419E-21	
     48.217524728589	     2.1602936721458E-21	
     48.244372421162	      2.255264424033E-21	
     48.271172304081	      2.354424949897E-21	
     48.298001978367	     2.4579476271545E-21	
     48.324783596886	     2.5660192096235E-21	
     48.351672916415	     2.6788333862131E-21	
     48.378514106452	     2.7966159825988E-21	
     48.405385113436	     2.9195666720021E-21	
     48.432285987079	      3.047924540649E-21	
     48.459216777203	     3.1819435954474E-21	
     48.486177533741	     3.3218285768907E-21	
     48.513089801638	     3.4680826004301E-21	
     48.540031961452	     3.6170918092077E-21	
     48.567004063012	     3.7710183355943E-21	
      48.59400615626	      3.931504147395E-21	
     48.621038291247	     4.0988133493279E-21	
     48.648021575729	     4.2732545008901E-21	
     48.675113856845	     4.4551096641383E-21	
     48.702157212178	     4.6447149678038E-21	
     48.729230634195	     4.8423787735416E-21	
     48.756254879001	     5.0484699065293E-21	
     48.783388496724	     5.2633069768622E-21	
     48.810472861313	     5.4873043066716E-21	
     48.837587316895	     5.7208402797171E-21	
     48.864731913645	     5.9642920640973E-21	
      48.89190670185	     6.2181138416604E-21	
     48.919031907499	      6.482763074144E-21	
     48.946267141012	     6.7586326047245E-21	
     48.973452715253	      7.046260753559E-21	
     49.000668504919	     7.3461348574869E-21	
     49.027914560414	     7.6587610150061E-21	
     49.055110663128	     7.9847160296292E-21	
     49.082417312547	      8.324512480332E-21	
     49.109673931739	      8.678796144366E-21	
     49.136960840234	     9.0481461387406E-21	
     49.164278088547	     9.4332116130629E-21	
     49.191625727309	     9.8346542258093E-21	
     49.218923001149	     1.0253197280007E-20	
     49.246250587257	     1.0689558526945E-20	
     49.273689521928	      1.114444650333E-20	
     49.300996898465	     1.1618774764157E-20	
     49.328415724939	     1.2113217792475E-20	
      49.35586506643	     1.2628716615893E-20	
     49.383263627274	     1.3166183850924E-20	
      49.41069262414	     1.3726506713514E-20	
     49.438152107771	     1.4310669566747E-20	
     49.465642129023	     1.4919682928801E-20	
     49.493162738867	     1.5554598687768E-20	
      49.52063218856	     1.6216670962357E-20	
     49.548132147101	     1.6906708105185E-20	
     49.575662665346	     1.7626299341223E-20	
     49.603223794262	     1.8376414061535E-20	
     49.630815584932	     1.9158475834021E-20	
     49.658355833099	     1.9973814939722E-20	
     49.686009009337	      2.082371261009E-20	
     49.713610562501	     2.1710013202971E-20	
     49.741242799119	     2.2633895045234E-20	
     49.768823148563	     2.3597131315743E-20	
     49.796516813807	     2.4601407485015E-20	
     49.824158510622	     2.5648410555646E-20	
      49.85191380956	     2.6739947833549E-20	
     49.879617058659	     2.7877855825903E-20	
     49.907268032742	     2.9064405630845E-20	
     49.935032855013	     3.0301203634843E-20	
      49.96274532025	     3.1590838773868E-20	
       49.9905719212	     3.2935183146366E-20	
     50.018346082938	     3.4336821726477E-20	
     50.046151123813	     3.5798008081343E-20	
     50.073903457491	     3.7321665346859E-20	
     50.101770318216	     3.8909884635286E-20	
     50.129584388874	     4.0565844765743E-20	
     50.157429358728	      4.229218190059E-20	
     50.185305279299	     4.4092092580237E-20	
     50.213212202218	      4.596845949714E-20	
     50.241150179234	     4.7924748672308E-20	
     50.269034971226	     4.9964428299218E-20	
     50.296950733586	     5.2090779206155E-20	
     50.324897517936	     5.4307666256406E-20	
     50.352875376018	     5.6618787554694E-20	
     50.380884359686	     5.9028268987713E-20	
     50.408839760426	     6.1540572214047E-20	
     50.436911056863	     6.4159378787056E-20	
     50.464928685775	     6.6889919104822E-20	
     50.492977459489	     6.9736476025385E-20	
     50.520972291971	     7.2704501163135E-20	
     50.549083416516	     7.5798549645573E-20	
     50.577140514523	     7.9005282982883E-20	
     50.605314198034	     8.2254204006458E-20	
     50.633433769533	     8.5636656437589E-20	
     50.661584608495	     8.9158369570481E-20	
     50.689681059539	     9.2825038503709E-20	
     50.717894494652	     9.6641989996227E-20	
      50.74605345566	     1.0061636455941E-19	
     50.774243702176	     1.0475402557627E-19	
     50.802465286368	     1.0906185092488E-19	
     50.830718260522	     1.1354668602815E-19	
     50.858916396221	     1.1821632757969E-19	
     50.887232211512	     1.2307749622386E-19	
      50.91549310127	     1.2813891881186E-19	
      50.94378539858	     1.3340835582188E-19	
     50.972109155828	     1.3889436525876E-19	
     51.000377664063	     1.4460653603382E-19	
     51.028764402201	     1.5055266923214E-19	
     51.057095803437	      1.567443727614E-19	
     51.085458681594	     1.6319055418269E-19	
     51.113853089158	     1.6990042428695E-19	
     51.142279078733	     1.7688747106305E-19	
      51.17073670304	     1.8416224195466E-19	
     51.199138575884	     1.9173445200717E-19	
     51.227571994662	     1.9961969520959E-19	
     51.256037011961	     2.0782835782154E-19	
     51.284533680485	     2.1637507347874E-19	
     51.313062053053	     2.2527297623557E-19	
     51.341534256522	     2.3453737033102E-19	
     51.370038074415	     2.4418195174893E-19	
     51.398661680974	     2.5422306880172E-19	
     51.427228983866	     2.6467814328222E-19	
     51.455739742063	     2.7556292453316E-19	
     51.484370545666	     2.8689396856962E-19	
      51.51294471412	     2.9869295129093E-19	
     51.541639230398	     3.1097467458293E-19	
      51.57027702089	     3.2376363568775E-19	
      51.59885784312	     3.3707802158992E-19	
     51.627559270721	     3.5094059408433E-19	
     51.656292645944	     3.6537032459563E-19	
      51.68496891583	     3.8039616831757E-19	
     51.713677041862	     3.9604021083874E-19	
     51.742417077153	     4.1232563614164E-19	
     51.771189074934	      4.292825459229E-19	
     51.799993088553	     4.4693528456311E-19	
     51.828739568728	     4.6531529906619E-19	
      51.85751797242	     4.8445081195217E-19	
     51.886328352836	     5.0437278748413E-19	
       51.9151707633	     5.2511344143918E-19	
     51.944045257258	     5.4670762978461E-19	
     51.972861786504	     5.6919062284285E-19	
     52.001800507889	     5.9259587399661E-19	
     52.030681171293	     6.1696595275648E-19	
     52.059593931901	     6.4233724721481E-19	
     52.088538843251	      6.687521029235E-19	
        52.117515959	     6.9625266559754E-19	
      52.14643462833	     7.2488617398545E-19	
     52.175385407928	     7.5469620590707E-19	
     52.204368351307	     7.8573121096469E-19	
     52.233383512095	     8.1804355241427E-19	
     52.262430944042	     8.5168258808957E-19	
     52.291510701017	     8.8670570803166E-19	
     52.320531525746	      9.231705014349E-19	
     52.349584580407	     9.6113499701039E-19	
     52.378669918722	     1.0006599054865E-18	
      52.40778759453	     1.0418097654724E-18	
     52.436937661792	     1.0846515508846E-18	
     52.466120174588	     1.1292532875544E-18	
     52.495243265013	     1.1756936317219E-18	
     52.524398704903	     1.2240429959326E-18	
     52.553586548187	     1.2743793284659E-18	
     52.582806848916	     1.3267842967569E-18	
      52.61205966126	     1.3813391821805E-18	
     52.641252605351	     1.4381571210185E-18	
     52.670477964107	      1.497290818329E-18	
     52.699735791544	     1.5588678898354E-18	
     52.729026141802	     1.6229747084328E-18	
     52.758349069138	     1.6897107696314E-18	
     52.787704627932	     1.7592021365333E-18	
     52.816999820298	     1.8303923260019E-18	
      52.84632754618	      1.902689308448E-18	
     52.875781119097	     1.9779549991156E-18	
     52.905080815514	     2.0562269237449E-18	
     52.934506467778	     2.1375813051796E-18	
     52.963964871182	     2.2221486680503E-18	
     52.993362405584	     2.3100735558912E-18	
     53.022792592186	     2.4014707896916E-18	
     53.052255485419	     2.4964889273027E-18	
     53.081751139834	     2.5952624560815E-18	
     53.111279610106	     2.6979385790053E-18	
     53.140746754398	     2.8046870843894E-18	
     53.170340915943	     2.9156475737495E-18	
     53.199873651559	     3.0310120082706E-18	
     53.229439212511	     3.1509280286517E-18	
     53.259037653559	     3.2755923118069E-18	
     53.288574308147	     3.4051994463919E-18	
     53.318238568659	     3.5399205752921E-18	
      53.34784094185	     3.6799876152798E-18	
     53.377476203872	     3.8255814974462E-18	
     53.407144409567	     3.9769471707568E-18	
     53.436845613897	     4.1342888520685E-18	
     53.466484516979	     4.2978778273528E-18	
     53.496251777751	     4.4679124718804E-18	
     53.525956635386	     4.6446908890395E-18	
     53.555694499774	     4.8284502061686E-18	
      53.58546542596	     5.0194941617286E-18	
      53.61526946911	     5.2180857467716E-18	
     53.645010691694	     5.4245453845345E-18	
     53.674881027834	     5.6391607630772E-18	
     53.704688440483	     5.8622826833939E-18	
     53.734528977584	     6.0942275754326E-18	
     53.764402694385	     6.3353427251702E-18	
     53.794213118725	     6.5860104266464E-18	
     53.824153253678	     6.8465803261077E-18	
     53.854029992312	     7.1174688366811E-18	
     53.883939917357	     7.3990836792562E-18	
     53.913883084139	     7.6918282543075E-18	
     53.943859548105	     7.9961558311236E-18	
     53.973869364828	     8.3125175349452E-18	
     54.003815308791	     8.6414193179221E-18	
     54.033891889846	     8.9832985368493E-18	
     54.063904493116	     9.3387277042188E-18	
     54.093950455335	     9.7082080705311E-18	
     54.124029832154	     1.0092308077755E-17	
      54.15404485614	     1.0491644227513E-17	
     54.184191120654	     1.0906718087847E-17	
      54.21427292636	      1.133825712929E-17	
     54.244388152062	     1.1786870579372E-17	
     54.274536853482	      1.225321529434E-17	
     54.304719086469	     1.2738008887944E-17	
     54.334934906996	     1.3241965577586E-17	
     54.365085784025	     1.3765948087599E-17	
     54.395270141544	     1.4310515739328E-17	
      54.42548803535	     1.4876741656815E-17	
     54.455739521366	     1.5465439877439E-17	
     54.486024655637	     1.6077293670483E-17	
     54.516343494335	     1.6713363282217E-17	
     54.546596847207	     1.7374640580742E-17	
     54.576883796375	     1.8062118120594E-17	
      54.60720439783	     1.8776715602195E-17	
     54.637558707693	     1.9519600731088E-17	
     54.667946782205	     2.0291935708716E-17	
     54.698368677737	     2.1094751323951E-17	
     54.728724540371	     2.1929405056432E-17	
       54.7591141148	     2.2796969002722E-17	
     54.789537457212	     2.3698960302378E-17	
     54.819994623921	     2.4636638258069E-17	
     54.850485671368	     2.5611381395448E-17	
     54.881010656117	     2.6624686775393E-17	
     54.911469056114	     2.7678020819411E-17	
     54.941961283087	     2.8773147983758E-17	
     54.972487393417	     2.9911668403122E-17	
     55.003047443615	     3.1095050095117E-17	
     55.033641490315	     3.2325251596797E-17	
     55.064168451369	     3.3604345659327E-17	
     55.094830548812	     3.4933782216005E-17	
      55.12542544917	       3.63159931671E-17	
     55.156054347926	     3.7752901214083E-17	
     55.186717301784	     3.9246542804132E-17	
     55.217414367572	     4.0799315379383E-17	
     55.248043786742	     4.2397716373258E-17	
     55.278809133956	     4.4005895749385E-17	
      55.30950672199	      4.567560619834E-17	
     55.340238423114	     4.7408692142208E-17	
     55.371004294224	      4.920751329836E-17	
     55.401702009702	      5.107472967111E-17	
     55.432536277976	     5.3012675670495E-17	
      55.46330227705	     5.5024183593485E-17	
     55.494102446393	     5.7111990060712E-17	
     55.525039681584	     5.9278909238479E-17	
     55.555805523846	     6.1528253084454E-17	
     55.586708546254	     6.3862856811368E-17	
     55.617645967526	     6.6285930318653E-17	
     55.648514548239	     6.8801070001857E-17	
     55.679417412978	     7.1411729737327E-17	
     55.710354618891	     7.4121340009795E-17	
     55.741326223254	     7.6933678702218E-17	
     55.772332283467	     7.9852747983751E-17	
      55.80326898485	     8.2882839585797E-17	
     55.834344013767	     8.6027433336689E-17	
     55.865349567862	     8.9291707564601E-17	
     55.896389576683	      9.267976137906E-17	
     55.927464097695	     9.6196342808634E-17	
     55.958573188487	     9.9846297649588E-17	
     55.989612339689	     1.0363495592838E-16	
     56.020790626839	     1.0756695790214E-16	
     56.051898857245	     1.1164858763206E-16	
      56.08304165552	      1.158849274591E-16	
     56.114219079314	     1.2028237793549E-16	
     56.145326036879	     1.2484586484329E-16	
     56.176572768106	     1.2958356309222E-16	
     56.207748914908	     1.3450058809624E-16	
      56.23906518493	     1.3960247303992E-16	
     56.270310752067	     1.4490030822297E-16	
     56.301591057625	     1.5039766297978E-16	
     56.332800306663	     1.5610511304319E-16	
     56.364150145238	     1.6202789252144E-16	
     56.395428807916	      1.681759220896E-16	
     56.426848411614	     1.7455664236319E-16	
     56.458196719768	     1.8117998545423E-16	
     56.489579878802	     1.8805510130348E-16	
     56.520891385909	     1.9519128302985E-16	
     56.552344302651	     2.0259678107569E-16	
     56.583725446896	     2.1028392255387E-16	
