# TLUSTY OSTAR2002+BSTAR2006
# teff = 42500 K (value for the effective temperature for the model. Temperatures are given in K)
# logg = 4.25 log(cm/s2) (value for Log(G) for the model.)
# z = 1  (Z/Z0)
#
#         WAVELENGTH	#                   FLUX	
#         (ANGSTROM)	#          (ERG/CM2/S/A)	
####################	########################	
     44.882873414538	     3.3122988345465E-24	
     44.907816823029	     3.4257092034203E-24	
     44.932787971259	     3.5844469633971E-24	
     44.957786905528	     3.7505232801192E-24	
     44.982746177196	     3.9242969056275E-24	
     45.007733177599	     4.1061397096988E-24	
     45.032747952971	     4.2963767882003E-24	
      45.05779054965	     4.4954430370388E-24	
     45.082793218463	     4.7037483972156E-24	
      45.10789152167	     4.9216776847171E-24	
      45.13294983914	     5.1497259064773E-24	
     45.158036012858	     5.3883428132936E-24	
     45.183081991723	     5.6380071194218E-24	
     45.208223941659	     5.8992373423214E-24	
     45.233325638345	     6.1725806456207E-24	
     45.258455225762	     6.4585852158526E-24	
     45.283612750422	     6.7578319559719E-24	
     45.308798258938	     7.0709357436715E-24	
     45.333943244952	     7.3985859379405E-24	
     45.359184785076	     7.7413660710002E-24	
     45.384385743676	      8.100056057405E-24	
     45.409614720477	     8.4753642452421E-24	
     45.434802903778	     8.8680813064758E-24	
     45.460087980675	     9.2789696337419E-24	
     45.485332204516	     9.7089136396161E-24	
     45.510604480433	     1.0158766566913E-23	
     45.535904855209	     1.0629458915199E-23	
     45.561233375735	     1.1121953115378E-23	
     45.586520769912	     1.1637296853676E-23	
     45.611836249694	     1.2176501813949E-23	
     45.637179861898	     1.2740697513076E-23	
     45.662551653443	     1.3331008175018E-23	
     45.687951671355	     1.3948679073759E-23	
     45.713310257544	     1.4594994153085E-23	
     45.738766792027	     1.5271208130563E-23	
     45.764181834002	     1.5978801617499E-23	
      45.78955519781	     1.6719200191206E-23	
     45.815026728651	      1.749384208202E-23	
     45.840456520044	     1.8304524170173E-23	
     45.865984728293	     1.9152516880702E-23	
     45.891471135712	      2.003997009699E-23	
     45.916985883005	     2.0968478551036E-23	
     45.942458611669	     2.1940109374997E-23	
     45.968030102304	     2.2956543464139E-23	
     45.993559512376	      2.402025669234E-23	
     46.019117294904	     2.5133153501561E-23	
     46.044703497212	     2.6297729355363E-23	
      46.07024736872	     2.7516197634913E-23	
     46.095890474148	     2.8791221106895E-23	
     46.121491186235	      3.012525667959E-23	
     46.147120350345	     3.1521023683597E-23	
     46.172778013935	     3.2981489591887E-23	
     46.198393032158	     3.4509714333053E-23	
     46.224107758229	     3.6108606178033E-23	
      46.24977977578	     3.7781660775153E-23	
     46.275480324708	      3.953238640661E-23	
     46.301209452603	     4.1364029340824E-23	
      46.32689561815	     4.3280656421021E-23	
     46.352681967456	     4.5285921047814E-23	
     46.378425290646	     4.7384344149158E-23	
     46.404197224346	     4.9579844536028E-23	
     46.429997816279	     5.1876979974657E-23	
     46.455755126455	     5.4280804200884E-23	
     46.481613098284	     5.6795676890199E-23	
     46.507427723964	     5.9427305965875E-23	
     46.533271039062	     6.2180862033333E-23	
     46.559143091431	     6.5061832649522E-23	
     46.584971540186	     6.8076585520415E-23	
     46.610901130475	     7.1230834716616E-23	
     46.636787052132	     7.4511539956299E-23	
     46.662701741879	     7.7852304578935E-23	
     46.688645247699	     8.1344507452616E-23	
     46.714617617682	     8.4993321568499E-23	
     46.740546026876	     8.8806068931773E-23	
     46.766503234583	      9.278985421859E-23	
     46.792489288808	     9.6952172973426E-23	
     46.818504237665	     1.0130117294066E-22	
     46.844548129374	     1.0584513526207E-22	
     46.870547733178	      1.105931623584E-22	
     46.896576213546	     1.1555416911831E-22	
     46.922633618612	     1.2073768571127E-22	
     46.948719996617	     1.2615371026084E-22	
     46.974835395912	     1.3181236460593E-22	
     47.000906177686	     1.3772534848171E-22	
     47.027079682944	      1.439030327568E-22	
     47.053208503692	       1.50358315378E-22	
     47.079366375567	     1.5710289351789E-22	
     47.105479331519	     1.6415037361269E-22	
     47.131695368778	      1.715131156112E-22	
     47.157866422534	     1.7920683722378E-22	
     47.184066556704	     1.8724697117812E-22	
     47.210295819784	      1.956458418176E-22	
     47.236554260378	     2.0442077990095E-22	
     47.262767416563	     2.1359139494561E-22	
     47.289009682029	     2.2317255285578E-22	
     47.315355781599	     2.3318397473996E-22	
     47.341581734975	     2.4364486849935E-22	
     47.367911619808	     2.5457330326805E-22	
     47.394270808632	     2.6599187423195E-22	
     47.420584341323	     2.7792489238831E-22	
     47.446927109052	     2.9039153328624E-22	
     47.473299160566	     3.0341669707165E-22	
     47.499700544723	     3.1702850655314E-22	
     47.526055967381	     3.3124933175847E-22	
     47.552516079912	      3.461083342026E-22	
     47.578930161325	     3.6163374224726E-22	
     47.605373603601	     3.7785545164074E-22	
     47.631846455723	     3.9480426319474E-22	
     47.658273003882	     4.1251546157382E-22	
      47.68472889166	     4.3102001117179E-22	
      47.71129009926	     4.5035345633983E-22	
     47.737804897468	     4.7055540330445E-22	
     47.764273082132	     4.9166433009853E-22	
     47.790846818354	      5.137185757416E-22	
     47.817373870131	     5.3676255781143E-22	
       47.8440067411	     5.6084052503318E-22	
     47.870592856595	     5.8599842707137E-22	
     47.897132011203	     6.1228532678522E-22	
      47.92377721757	     6.3975091029649E-22	
     47.950452085929	     6.6844703134223E-22	
     47.977079885928	     6.9843221827433E-22	
     48.003737276208	     7.2976210159731E-22	
     48.030424306121	     7.6249735220182E-22	
     48.057063988997	     7.9670254124644E-22	
     48.083810360894	     8.3243928940028E-22	
     48.110509313421	     8.6978075905314E-22	
      48.13723793207	     9.0879689695534E-22	
     48.163996266313	     9.4956311157494E-22	
     48.190784365732	     9.9215770128569E-22	
     48.217524728589	     1.0366651714952E-21	
     48.244372421162	     1.0831646485748E-21	
     48.271172304081	      1.131753058293E-21	
     48.298001978367	     1.1825215992471E-21	
     48.324783596886	     1.2355683438544E-21	
     48.351672916415	     1.2909920432975E-21	
     48.378514106452	     1.3489036789795E-21	
     48.405385113436	     1.4094128802313E-21	
     48.432285987079	     1.4726359386457E-21	
     48.459216777203	     1.5386934119331E-21	
     48.486177533741	     1.6077117004281E-21	
     48.513089801638	     1.6799292936483E-21	
     48.540031961452	     1.7535026122491E-21	
     48.567004063012	     1.8295447436865E-21	
      48.59400615626	     1.9088766434112E-21	
     48.621038291247	     1.9916462714625E-21	
     48.648021575729	     2.0780076357743E-21	
     48.675113856845	     2.1681100139346E-21	
     48.702157212178	     2.2621130377644E-21	
     48.729230634195	     2.3602027281241E-21	
     48.756254879001	     2.4625472624094E-21	
     48.783388496724	     2.5693220412338E-21	
     48.810472861313	     2.6807494487887E-21	
     48.837587316895	     2.7969791515859E-21	
     48.864731913645	     2.9182627374231E-21	
      48.89190670185	     3.0448033404666E-21	
     48.919031907499	      3.176829243391E-21	
     48.946267141012	     3.3145842260819E-21	
     48.973452715253	     3.4583052176589E-21	
     49.000668504919	     3.6082593441199E-21	
     49.027914560414	     3.7647227973406E-21	
     49.055110663128	     3.9279676686601E-21	
     49.082417312547	     4.0982893732457E-21	
     49.109673931739	     4.2760020485043E-21	
     49.136960840234	      4.461410573219E-21	
     49.164278088547	     4.6548623558975E-21	
     49.191625727309	     4.8567031718641E-21	
     49.218923001149	     5.0673093554731E-21	
     49.246250587257	     5.2870392621289E-21	
     49.273689521928	     5.5162776557166E-21	
     49.300996898465	     5.7554799374669E-21	
     49.328415724939	     6.0050372651241E-21	
      49.35586506643	     6.2654266976572E-21	
     49.383263627274	     6.5371110876137E-21	
      49.41069262414	     6.8205717399771E-21	
     49.438152107771	     7.1163227797184E-21	
     49.465642129023	     7.4248913079054E-21	
     49.493162738867	     7.7468326989691E-21	
      49.52063218856	     8.0827571358119E-21	
     49.548132147101	     8.4332516812579E-21	
     49.575662665346	     8.7989250238634E-21	
     49.603223794262	     9.1804595361917E-21	
     49.630815584932	     9.5785190879873E-21	
     49.658355833099	     9.9938739072818E-21	
     49.686009009337	     1.0427208141071E-20	
     49.713610562501	     1.0879350205457E-20	
     49.741242799119	     1.1351085117011E-20	
     49.768823148563	     1.1843312098557E-20	
     49.796516813807	     1.2356840468659E-20	
     49.824158510622	     1.2892663158774E-20	
      49.85191380956	     1.3451680239308E-20	
     49.879617058659	     1.4034958721683E-20	
     49.907268032742	     1.4643585262714E-20	
     49.935032855013	     1.5278570382519E-20	
      49.96274532025	     1.5941054231229E-20	
       49.9905719212	     1.6632284825046E-20	
     50.018346082938	     1.7353475653097E-20	
     50.046151123813	     1.8105974154119E-20	
     50.073903457491	     1.8891087189893E-20	
     50.101770318216	     1.9710229341344E-20	
     50.129584388874	     2.0564910727049E-20	
     50.157429358728	     2.1456592712442E-20	
     50.185305279299	      2.238694217162E-20	
     50.213212202218	     2.3357618144322E-20	
     50.241150179234	     2.4370421096009E-20	
     50.269034971226	     2.5427228288228E-20	
     50.296950733586	     2.6529745466849E-20	
     50.324897517936	      2.768019445317E-20	
     50.352875376018	      2.888048949511E-20	
     50.380884359686	     3.0132684200313E-20	
     50.408839760426	     3.1439372965845E-20	
     50.436911056863	     3.2802529790399E-20	
     50.464928685775	     3.4224985434784E-20	
     50.492977459489	     3.5708941230962E-20	
     50.520972291971	     3.7257409274285E-20	
     50.549083416516	     3.8872869479552E-20	
     50.577140514523	     4.0547982579271E-20	
     50.605314198034	     4.2244024707457E-20	
     50.633433769533	     4.4011010044968E-20	
     50.661584608495	     4.5851785397957E-20	
     50.689681059539	     4.7769775083346E-20	
     50.717894494652	      4.976776382371E-20	
      50.74605345566	     5.1849460977663E-20	
     50.774243702176	     5.4018214913617E-20	
     50.802465286368	     5.6277518985944E-20	
     50.830718260522	     5.8631433245434E-20	
     50.858916396221	     6.1083914605483E-20	
     50.887232211512	     6.3638871159029E-20	
      50.91549310127	     6.6300729773647E-20	
      50.94378539858	     6.9073848801157E-20	
     50.972109155828	      7.196291732894E-20	
     51.000377664063	     7.4973147075263E-20	
     51.028764402201	     7.8108971925819E-20	
     51.057095803437	     8.1376112706491E-20	
     51.085458681594	     8.4779778781146E-20	
     51.113853089158	     8.8325841404044E-20	
     51.142279078733	     9.2020288194192E-20	
      51.17073670304	     9.5869078498119E-20	
     51.199138575884	     9.9879059442691E-20	
     51.227571994662	     1.0405682470208E-19	
     51.256037011961	     1.0840924938011E-19	
     51.284533680485	     1.1294360581112E-19	
     51.313062053053	     1.1766756121754E-19	
     51.341534256522	     1.2258959525754E-19	
     51.370038074415	     1.2771720260149E-19	
     51.398661680974	     1.3305891164457E-19	
     51.427228983866	     1.3862427302433E-19	
     51.455739742063	     1.4442338417273E-19	
     51.484370545666	     1.5046384542755E-19	
      51.51294471412	      1.567566208478E-19	
     51.541639230398	     1.6331396201453E-19	
      51.57027702089	     1.7014454890981E-19	
      51.59885784312	      1.772616568425E-19	
     51.627559270721	     1.8467581988714E-19	
     51.656292645944	     1.9239929655434E-19	
      51.68496891583	     2.0044721627554E-19	
     51.713677041862	     2.0883190822862E-19	
     51.742417077153	     2.1756627633803E-19	
     51.771189074934	     2.2666738002568E-19	
     51.799993088553	     2.3614798677803E-19	
     51.828739568728	     2.4602445860702E-19	
      51.85751797242	     2.5631565757554E-19	
     51.886328352836	     2.6703693879783E-19	
       51.9151707633	     2.7820637997297E-19	
     51.944045257258	     2.8984197347961E-19	
     51.972861786504	     3.0196685754424E-19	
     52.001800507889	     3.1459539757144E-19	
     52.030681171293	     3.2775442147221E-19	
     52.059593931901	     3.4146328796288E-19	
     52.088538843251	     3.5574647148039E-19	
        52.117515959	     3.7062555738308E-19	
      52.14643462833	     3.8612891330749E-19	
     52.175385407928	     4.0227943932747E-19	
     52.204368351307	     4.1910530444036E-19	
     52.233383512095	     4.3663592586854E-19	
     52.262430944042	     4.5489920302165E-19	
     52.291510701017	     4.7392565858965E-19	
     52.320531525746	     4.9374877059663E-19	
     52.349584580407	     5.1440131557642E-19	
     52.378669918722	     5.3591749436108E-19	
      52.40778759453	     5.5833271790762E-19	
     52.436937661792	     5.8168634012704E-19	
     52.466120174588	     6.0601479232664E-19	
     52.495243265013	     6.3136337925552E-19	
     52.524398704903	     6.5777160226754E-19	
     52.553586548187	     6.8528489348872E-19	
     52.582806848916	     7.1394847093769E-19	
      52.61205966126	     7.4381006084041E-19	
     52.641252605351	     7.7492260420133E-19	
     52.670477964107	     8.0733630857981E-19	
     52.699735791544	     8.4110499412018E-19	
     52.729026141802	     8.7628493685331E-19	
     52.758349069138	     9.1293756093611E-19	
     52.787704627932	     9.5112129714782E-19	
     52.816999820298	     9.9024686695501E-19	
      52.84632754618	     1.0299799187136E-18	
     52.875781119097	     1.0713721915252E-18	
     52.905080815514	     1.1144346404496E-18	
     52.934506467778	     1.1592227513061E-18	
     52.963964871182	     1.2058108394533E-18	
     52.993362405584	     1.2542748828286E-18	
     53.022792592186	     1.3046860329156E-18	
     53.052255485419	     1.3571191791371E-18	
     53.081751139834	     1.4116595518863E-18	
     53.111279610106	     1.4683999924978E-18	
     53.140746754398	     1.5274183090516E-18	
     53.170340915943	     1.5888025892513E-18	
     53.199873651559	      1.652662132744E-18	
     53.229439212511	     1.7190760222483E-18	
     53.259037653559	     1.7881681956159E-18	
     53.288574308147	     1.8600420892806E-18	
     53.318238568659	     1.9347943618651E-18	
      53.34784094185	     2.0125608610407E-18	
     53.377476203872	      2.093443538888E-18	
     53.407144409567	     2.1775768587127E-18	
     53.436845613897	     2.2650946501697E-18	
     53.466484516979	     2.3561385142632E-18	
     53.496251777751	     2.4508245504357E-18	
     53.525956635386	     2.5493281699169E-18	
     53.555694499774	     2.6517853628531E-18	
      53.58546542596	     2.7583660781948E-18	
      53.61526946911	     2.8692263582428E-18	
     53.645010691694	     2.9845452756166E-18	
     53.674881027834	     3.1044956488595E-18	
     53.704688440483	     3.2292660185427E-18	
     53.734528977584	     3.3590508116209E-18	
     53.764402694385	     3.4940541692817E-18	
     53.794213118725	     3.6344923105273E-18	
     53.824153253678	     3.7805548959201E-18	
     53.854029992312	     3.9325087610135E-18	
     53.883939917357	     4.0905540188548E-18	
     53.913883084139	     4.2549676149917E-18	
     53.943859548105	     4.4259734086449E-18	
     53.973869364828	      4.603845917867E-18	
     54.003815308791	     4.7888885338635E-18	
     54.033891889846	     4.9813393354048E-18	
     54.063904493116	     5.1815428438095E-18	
     54.093950455335	     5.3898025600603E-18	
     54.124029832154	     5.6064120029172E-18	
      54.15404485614	     5.8317485915015E-18	
     54.184191120654	      6.066125715571E-18	
      54.21427292636	     6.3099266126963E-18	
     54.244388152062	     6.5635328901824E-18	
     54.274536853482	     6.8273325378311E-18	
     54.304719086469	     7.1017117077862E-18	
     54.334934906996	     7.3871312809474E-18	
     54.365085784025	     7.6840395945626E-18	
     54.395270141544	     7.9928677174573E-18	
      54.42548803535	     8.3141084410525E-18	
     54.455739521366	     8.6482649341585E-18	
     54.486024655637	     8.9958379857162E-18	
     54.516343494335	      9.357364035726E-18	
     54.546596847207	     9.7334630484487E-18	
     54.576883796375	     1.0124671625004E-17	
      54.60720439783	     1.0531581637653E-17	
     54.637558707693	     1.0954857872871E-17	
     54.667946782205	     1.1395124163757E-17	
     54.698368677737	      1.185308952101E-17	
     54.728724540371	     1.2329492042112E-17	
       54.7591141148	     1.2825030425833E-17	
     54.789537457212	     1.3340516728993E-17	
     54.819994623921	     1.3876646357377E-17	
     54.850485671368	     1.4434349310857E-17	
     54.881010656117	     1.5014426134451E-17	
     54.911469056114	     1.5617855714006E-17	
     54.941961283087	     1.6245627613072E-17	
     54.972487393417	     1.6898529989074E-17	
     55.003047443615	     1.7577720792309E-17	
     55.033641490315	      1.828410376147E-17	
     55.064168451369	     1.9019020922741E-17	
     55.094830548812	     1.9783353355432E-17	
      55.12542544917	     2.0578504916768E-17	
     55.156054347926	     2.1405537352263E-17	
     55.186717301784	      2.226582428605E-17	
     55.217414367572	     2.3160732867214E-17	
     55.248043786742	     2.4082085566329E-17	
     55.278809133956	      2.500890332449E-17	
      55.30950672199	     2.5971638068804E-17	
     55.340238423114	     2.6971429591529E-17	
     55.371004294224	     2.8009746324002E-17	
     55.401702009702	     2.9088034510845E-17	
     55.432536277976	     3.0207783475741E-17	
      55.46330227705	     3.1370782413357E-17	
     55.494102446393	     3.2578364168234E-17	
     55.525039681584	      3.383244785307E-17	
     55.555805523846	     3.5134956036322E-17	
     55.586708546254	     3.6487417702789E-17	
     55.617645967526	     3.7891975887135E-17	
     55.648514548239	     3.9350784828054E-17	
     55.679417412978	       4.08657084563E-17	
     55.710354618891	      4.243885789084E-17	
     55.741326223254	     4.4072576718632E-17	
     55.772332283467	     4.5769076320268E-17	
      55.80326898485	     4.7531097423154E-17	
     55.834344013767	     4.9360723840453E-17	
     55.865349567862	     5.1260977555448E-17	
     55.896389576683	     5.3234330451178E-17	
     55.927464097695	     5.5283659660862E-17	
     55.958573188487	     5.7411708372375E-17	
     55.989612339689	     5.9622030267925E-17	
     56.020790626839	     6.1917023723429E-17	
     56.051898857245	     6.4300684470251E-17	
      56.08304165552	     6.6776075501001E-17	
     56.114219079314	     6.9346586531514E-17	
     56.145326036879	     7.2016338929626E-17	
     56.176572768106	     7.4788637133826E-17	
     56.207748914908	     7.7667727934023E-17	
      56.23906518493	     8.0657433204582E-17	
     56.270310752067	     8.3762481887437E-17	
     56.301591057625	     8.6986936303101E-17	
     56.332800306663	      9.033582496249E-17	
     56.364150145238	     9.3813267507901E-17	
     56.395428807916	     9.7424838304541E-17	
     56.426848411614	      1.011750314186E-16	
     56.458196719768	     1.0506990160852E-16	
     56.489579878802	     1.0911460115427E-16	
     56.520891385909	     1.1331540372903E-16	
     56.552344302651	     1.1767740793505E-16	
     56.583725446896	     1.2220810054258E-16	
