# TLUSTY OSTAR2002+BSTAR2006
# teff = 42500 K (value for the effective temperature for the model. Temperatures are given in K)
# logg = 4.75 log(cm/s2) (value for Log(G) for the model.)
# z = 1  (Z/Z0)
#
#         WAVELENGTH	#                   FLUX	
#         (ANGSTROM)	#          (ERG/CM2/S/A)	
####################	########################	
     44.882873414538	     1.1109517278735E-24	
     44.907816823029	     1.1498079997509E-24	
     44.932787971259	     1.2042219914756E-24	
     44.957786905528	     1.2612099093459E-24	
     44.982746177196	     1.3208971471527E-24	
     45.007733177599	     1.3834102791782E-24	
     45.032747952971	      1.448878880253E-24	
      45.05779054965	     1.5174449062444E-24	
     45.082793218463	     1.5892599883021E-24	
      45.10789152167	     1.6644683639331E-24	
      45.13294983914	     1.7432400887045E-24	
     45.158036012858	     1.8257372986806E-24	
     45.183081991723	     1.9121521895573E-24	
     45.208223941659	     2.0026332637138E-24	
     45.233325638345	     2.0974084277556E-24	
     45.258455225762	     2.1966594389905E-24	
     45.283612750422	     2.3006280511921E-24	
     45.308798258938	      2.409499838334E-24	
     45.333943244952	     2.5235221193237E-24	
     45.359184785076	     2.6429551804454E-24	
     45.384385743676	     2.7680337162824E-24	
     45.409614720477	     2.8990229504839E-24	
     45.434802903778	      3.036221913558E-24	
     45.460087980675	     3.1799011106577E-24	
     45.485332204516	     3.3304029641507E-24	
     45.510604480433	      3.488003977452E-24	
     45.535904855209	     3.6530793526376E-24	
     45.561233375735	     3.8259480968116E-24	
     45.586520769912	     4.0070124113609E-24	
     45.611836249694	      4.196649467439E-24	
     45.637179861898	     4.3952638036276E-24	
     45.662551653443	     4.6032580626031E-24	
     45.687951671355	     4.8211051855038E-24	
     45.713310257544	     5.0492732724828E-24	
     45.738766792027	     5.2882188528925E-24	
     45.764181834002	     5.5384758230278E-24	
      45.78955519781	      5.800600446132E-24	
     45.815026728651	     6.0751094821403E-24	
     45.840456520044	     6.3626059886599E-24	
     45.865984728293	     6.6637055478876E-24	
     45.891471135712	     6.9790628260277E-24	
     45.916985883005	     7.3093418111943E-24	
     45.942458611669	     7.6552640584059E-24	
     45.968030102304	     8.0175320663547E-24	
     45.993559512376	     8.3969744003632E-24	
     46.019117294904	     8.7943622988163E-24	
     46.044703497212	     9.2105400427918E-24	
      46.07024736872	     9.6464485997261E-24	
     46.095890474148	     1.0102937142668E-23	
     46.121491186235	     1.0581057859451E-23	
     46.147120350345	     1.1081803379166E-23	
     46.172778013935	     1.1606244200935E-23	
     46.198393032158	      1.215553622155E-23	
     46.224107758229	     1.2730772388247E-23	
      46.24977977578	     1.3333260646506E-23	
     46.275480324708	     1.3964241849186E-23	
     46.301209452603	     1.4625093757792E-23	
      46.32689561815	     1.5317252573349E-23	
     46.352681967456	     1.6042095893733E-23	
     46.378425290646	     1.6801306589605E-23	
     46.404197224346	     1.7596380939505E-23	
     46.429997816279	     1.8429117442665E-23	
     46.455755126455	     1.9301400920691E-23	
     46.481613098284	     2.0214721810494E-23	
     46.507427723964	     2.1171325011838E-23	
     46.533271039062	     2.2173263335097E-23	
     46.559143091431	     2.3222639525247E-23	
     46.584971540186	     2.4321795639805E-23	
     46.610901130475	     2.5472666563699E-23	
     46.636787052132	     2.6671071258568E-23	
     46.662701741879	     2.7892720084104E-23	
     46.688645247699	     2.9170884144678E-23	
     46.714617617682	     3.0507439666856E-23	
     46.740546026876	     3.1905560458133E-23	
     46.766503234583	     3.3367699478566E-23	
     46.792489288808	     3.4896732663789E-23	
     46.818504237665	     3.6495866171038E-23	
     46.844548129374	     3.8168119456347E-23	
     46.870547733178	     3.9917308497475E-23	
     46.896576213546	     4.1746480065779E-23	
     46.922633618612	     4.3659464430492E-23	
     46.948719996617	     4.5660073922574E-23	
     46.974835395912	     4.7752444412363E-23	
     47.000906177686	     4.9940678419337E-23	
     47.027079682944	     5.2229078719459E-23	
     47.053208503692	     5.4622383345583E-23	
     47.079366375567	     5.7125512703614E-23	
     47.105479331519	     5.9743368202023E-23	
     47.131695368778	     6.2480952857601E-23	
     47.157866422534	     6.5344165662291E-23	
     47.184066556704	     6.8338477394032E-23	
     47.210295819784	     7.1470027077427E-23	
     47.236554260378	     7.4745093778492E-23	
     47.262767416563	     7.8170342180005E-23	
     47.289009682029	     8.1752610532861E-23	
     47.315355781599	      8.549865922152E-23	
     47.341581734975	     8.9416799388541E-23	
     47.367911619808	     9.3514191376907E-23	
     47.394270808632	     9.7799205345935E-23	
     47.420584341323	     1.0228089715495E-22	
     47.446927109052	     1.0696799919477E-22	
     47.473299160566	     1.1186966416446E-22	
     47.499700544723	     1.1699600356338E-22	
     47.526055967381	     1.2235746939807E-22	
     47.552516079912	     1.2796415348185E-22	
     47.578930161325	     1.3382798290322E-22	
     47.605373603601	     1.3996064883144E-22	
     47.631846455723	     1.4637417374438E-22	
     47.658273003882	     1.5308200545894E-22	
      47.68472889166	     1.6009693399421E-22	
      47.71129009926	      1.674325917982E-22	
     47.737804897468	     1.7510560675232E-22	
     47.764273082132	     1.8313008068064E-22	
     47.790846818354	     1.9152180392333E-22	
     47.817373870131	     2.0029882413544E-22	
       47.8440067411	      2.094766648264E-22	
     47.870592856595	     2.1907497290402E-22	
     47.897132011203	     2.2911538033006E-22	
      47.92377721757	     2.3961297414306E-22	
     47.950452085929	     2.5059308522446E-22	
     47.977079885928	     2.6207779538694E-22	
     48.003737276208	     2.7408585160244E-22	
     48.030424306121	     2.8664647268821E-22	
     48.057063988997	     2.9978317773701E-22	
     48.083810360894	     3.1351979923326E-22	
     48.110509313421	     3.2788715239129E-22	
      48.13723793207	     3.4291136566233E-22	
     48.163996266313	     3.5862589701506E-22	
     48.190784365732	     3.7505918155336E-22	
     48.217524728589	     3.9224564287836E-22	
     48.244372421162	     4.1021905921395E-22	
     48.271172304081	     4.2901809115327E-22	
     48.298001978367	     4.4867738876339E-22	
     48.324783596886	     4.6923904714535E-22	
     48.351672916415	     4.9074050290683E-22	
     48.378514106452	     5.1322988900365E-22	
     48.405385113436	     5.3674891440708E-22	
     48.432285987079	     5.6134380966819E-22	
     48.459216777203	     5.8706700513155E-22	
     48.486177533741	     6.1396908313251E-22	
     48.513089801638	      6.421456852641E-22	
     48.540031961452	     6.7085501564344E-22	
     48.567004063012	     7.0054394232303E-22	
      48.59400615626	      7.315472595652E-22	
     48.621038291247	     7.6392097339478E-22	
     48.648021575729	     7.9772978187801E-22	
     48.675113856845	     8.3303202999589E-22	
     48.702157212178	     8.6989930675044E-22	
     48.729230634195	     9.0839659785006E-22	
     48.756254879001	     9.4860058419679E-22	
     48.783388496724	     9.9058006547436E-22	
     48.810472861313	     1.0344205867697E-21	
     48.837587316895	     1.0801995115875E-21	
     48.864731913645	     1.1280047989498E-21	
      48.89190670185	     1.1779239946108E-21	
     48.919031907499	     1.2300561172045E-21	
     48.946267141012	     1.2844910202643E-21	
     48.973452715253	     1.3413373117271E-21	
     49.000668504919	     1.4007003259112E-21	
     49.027914560414	     1.4626873305317E-21	
     49.055110663128	      1.527424175745E-21	
     49.082417312547	      1.595019808157E-21	
     49.109673931739	     1.6656041909169E-21	
     49.136960840234	     1.7393211581122E-21	
     49.164278088547	     1.8163001437911E-21	
     49.191625727309	     1.8966699705045E-21	
     49.218923001149	     1.9806120072828E-21	
     49.246250587257	     2.0682788482399E-21	
     49.273689521928	     2.1598056833364E-21	
     49.300996898465	     2.2553864254646E-21	
     49.328415724939	     2.3552025422447E-21	
      49.35586506643	     2.4594320214723E-21	
     49.383263627274	     2.5682688509324E-21	
      49.41069262414	     2.6819362699826E-21	
     49.438152107771	     2.8006333623484E-21	
     49.465642129023	     2.9245736679702E-21	
     49.493162738867	     3.0540004781745E-21	
      49.52063218856	     3.1891511149292E-21	
     49.548132147101	     3.3303030812976E-21	
     49.575662665346	     3.4776808773973E-21	
     49.603223794262	     3.6315844930979E-21	
     49.630815584932	     3.7922972186391E-21	
     49.658355833099	     3.9601446826918E-21	
     49.686009009337	     4.1353970143862E-21	
     49.713610562501	      4.318405959975E-21	
     49.741242799119	     4.5095274950196E-21	
     49.768823148563	     4.7090989914879E-21	
     49.796516813807	     4.9175012477782E-21	
     49.824158510622	     5.1351302111651E-21	
      49.85191380956	     5.3623753366699E-21	
     49.879617058659	     5.5996924326529E-21	
     49.907268032742	     5.8475331069871E-21	
     49.935032855013	     6.1063063887137E-21	
      49.96274532025	     6.3765575177349E-21	
       49.9905719212	     6.6587479152333E-21	
     50.018346082938	     6.9534367894638E-21	
     50.046151123813	     7.2611613696112E-21	
     50.073903457491	     7.5825328919504E-21	
     50.101770318216	     7.9180849821978E-21	
     50.129584388874	     8.2685099006428E-21	
     50.157429358728	     8.6344497735241E-21	
     50.185305279299	     9.0165689215874E-21	
     50.213212202218	     9.4156032421133E-21	
     50.241150179234	     9.8322851735369E-21	
     50.269034971226	     1.0267422857923E-20	
     50.296950733586	     1.0721829469948E-20	
     50.324897517936	     1.1196330887032E-20	
     50.352875376018	     1.1691823389037E-20	
     50.380884359686	      1.220924356642E-20	
     50.408839760426	      1.274959612865E-20	
     50.436911056863	     1.3313813783131E-20	
     50.464928685775	     1.3903025706856E-20	
     50.492977459489	     1.4518314366107E-20	
     50.520972291971	     1.5160909952094E-20	
     50.549083416516	     1.5831841877515E-20	
     50.577140514523	     1.6527817543353E-20	
     50.605314198034	       1.72323115671E-20	
     50.633433769533	     1.7966859385749E-20	
     50.661584608495	     1.8732622306351E-20	
     50.689681059539	     1.9531024312102E-20	
     50.717894494652	     2.0363434152938E-20	
      50.74605345566	     2.1231331676447E-20	
     50.774243702176	     2.2136281753377E-20	
     50.802465286368	     2.3079615710333E-20	
     50.830718260522	     2.4063387564051E-20	
     50.858916396221	     2.5088998654883E-20	
     50.887232211512	     2.6158319714439E-20	
      50.91549310127	     2.7273116776784E-20	
      50.94378539858	     2.8435615201394E-20	
     50.972109155828	     2.9647534686744E-20	
     51.000377664063	     3.0911126420666E-20	
     51.028764402201	      3.222860985719E-20	
     51.057095803437	     3.3602180588638E-20	
     51.085458681594	     3.5034426704657E-20	
     51.113853089158	     3.6527596269029E-20	
     51.142279078733	     3.8084358784697E-20	
      51.17073670304	      3.970751505524E-20	
     51.199138575884	     4.1399994094086E-20	
     51.227571994662	     4.3164441138217E-20	
     51.256037011961	     4.5004191830503E-20	
     51.284533680485	     4.6922279687135E-20	
     51.313062053053	     4.8922153105076E-20	
     51.341534256522	     5.1007276024301E-20	
     51.370038074415	     5.3181333522504E-20	
     51.398661680974	      5.544782043149E-20	
     51.427228983866	     5.7811061249668E-20	
     51.455739742063	     6.0275156725846E-20	
     51.484370545666	      6.284404308645E-20	
      51.51294471412	     6.5522606460659E-20	
     51.541639230398	     6.8314989574111E-20	
      51.57027702089	     7.1226781619056E-20	
      51.59885784312	     7.4262693980414E-20	
     51.627559270721	     7.7427733213345E-20	
     51.656292645944	     8.0727625242448E-20	
      51.68496891583	     8.4168397324811E-20	
     51.713677041862	     8.7755775990024E-20	
     51.742417077153	     9.1496007634688E-20	
     51.771189074934	     9.5395590320874E-20	
     51.799993088553	     9.9461272255101E-20	
     51.828739568728	     1.0370068931966E-19	
      51.85751797242	     1.0812047676179E-19	
     51.886328352836	     1.1272882579656E-19	
       51.9151707633	     1.1753333005414E-19	
     51.944045257258	     1.2254252460163E-19	
     51.972861786504	     1.2776576568227E-19	
     52.001800507889	     1.3321091834372E-19	
     52.030681171293	     1.3888855402903E-19	
     52.059593931901	     1.4480799035833E-19	
     52.088538843251	     1.5098005270264E-19	
        52.117515959	      1.574141285551E-19	
      52.14643462833	     1.6412373376881E-19	
     52.175385407928	     1.7111984709336E-19	
     52.204368351307	     1.7841253535013E-19	
     52.233383512095	     1.8601734058987E-19	
     52.262430944042	     1.9394421525873E-19	
     52.291510701017	     2.0220995265968E-19	
     52.320531525746	     2.1082925111854E-19	
     52.349584580407	     2.1981533468726E-19	
     52.378669918722	     2.2918341099686E-19	
      52.40778759453	     2.3895135915935E-19	
     52.436937661792	     2.4913560428907E-19	
     52.466120174588	     2.5975386241561E-19	
     52.495243265013	     2.7082471437064E-19	
     52.524398704903	      2.823689391223E-19	
     52.553586548187	     2.9440262966681E-19	
     52.582806848916	     3.0695133967909E-19	
      52.61205966126	     3.2003233753192E-19	
     52.641252605351	     3.3367349708437E-19	
     52.670477964107	     3.4789489289012E-19	
     52.699735791544	      3.627230018639E-19	
     52.729026141802	       3.78182821652E-19	
     52.758349069138	     3.9430058527401E-19	
     52.787704627932	     4.1110510572928E-19	
     52.816999820298	     4.2832946835772E-19	
      52.84632754618	      4.458197135365E-19	
     52.875781119097	     4.6405426770062E-19	
     52.905080815514	     4.8303680294161E-19	
     52.934506467778	     5.0279477846363E-19	
     52.963964871182	     5.2336070570509E-19	
     52.993362405584	     5.4476858019011E-19	
     53.022792592186	     5.6705257317296E-19	
     53.052255485419	     5.9024712364381E-19	
     53.081751139834	       6.14390518538E-19	
     53.111279610106	     6.3952086405172E-19	
     53.140746754398	     6.6568111395825E-19	
     53.170340915943	     6.9290838054076E-19	
     53.199873651559	      7.212516884156E-19	
     53.229439212511	     7.5075400927077E-19	
     53.259037653559	     7.8146178857376E-19	
     53.288574308147	     8.1342945029761E-19	
     53.318238568659	     8.4669996948586E-19	
      53.34784094185	     8.8133428569234E-19	
     53.377476203872	     9.1738428858203E-19	
     53.407144409567	     9.5490978367811E-19	
     53.436845613897	     9.9396765571025E-19	
     53.466484516979	     1.0346274347378E-18	
     53.496251777751	     1.0769461055997E-18	
     53.525956635386	     1.1209990678378E-18	
     53.555694499774	     1.1668528091801E-18	
      53.58546542596	     1.2145811120435E-18	
      53.61526946911	     1.2642613417208E-18	
     53.645010691694	     1.3159830619411E-18	
     53.674881027834	     1.3698058109979E-18	
     53.704688440483	     1.4258363882089E-18	
     53.734528977584	     1.4841537730537E-18	
     53.764402694385	     1.5448673231876E-18	
     53.794213118725	     1.6080656178127E-18	
     53.824153253678	     1.6738327705002E-18	
     53.854029992312	     1.7423015241375E-18	
     53.883939917357	     1.8135735370927E-18	
     53.913883084139	     1.8877557305086E-18	
     53.943859548105	     1.9649674643866E-18	
     53.973869364828	     2.0453404663452E-18	
     54.003815308791	     2.1290135132381E-18	
     54.033891889846	     2.2160891658622E-18	
     54.063904493116	     2.3067387972106E-18	
     54.093950455335	     2.4010968582685E-18	
     54.124029832154	     2.4993047975514E-18	
      54.15404485614	     2.6015384824761E-18	
     54.184191120654	     2.7079451889089E-18	
      54.21427292636	     2.8187218534833E-18	
     54.244388152062	     2.9340232015917E-18	
     54.274536853482	       3.05402536712E-18	
     54.304719086469	     3.1789547482597E-18	
     54.334934906996	     3.3089728788975E-18	
     54.365085784025	     3.4443294878931E-18	
     54.395270141544	     3.5852237768076E-18	
      54.42548803535	     3.7318781852715E-18	
     54.455739521366	     3.8845268049916E-18	
     54.486024655637	     4.0434153106483E-18	
     54.516343494335	     4.2088008909112E-18	
     54.546596847207	     4.3809681217132E-18	
     54.576883796375	     4.5601697460358E-18	
      54.60720439783	     4.7466972063124E-18	
     54.637558707693	     4.9408531887531E-18	
     54.667946782205	     5.1429515551654E-18	
     54.698368677737	      5.353317274892E-18	
     54.728724540371	     5.5722941242751E-18	
       54.7591141148	     5.8002230324671E-18	
     54.789537457212	     6.0374870885984E-18	
     54.819994623921	     6.2844425049086E-18	
     54.850485671368	     6.5414938899292E-18	
     54.881010656117	     6.8090564485043E-18	
     54.911469056114	     7.0875818788202E-18	
     54.941961283087	     7.3774950480932E-18	
     54.972487393417	     7.6792675741146E-18	
     55.003047443615	     7.9933813004364E-18	
     55.033641490315	     8.3203282303206E-18	
     55.064168451369	     8.6606795501791E-18	
     55.094830548812	     9.0149221836489E-18	
      55.12542544917	     9.3836802198722E-18	
     55.156054347926	     9.7675155431632E-18	
     55.186717301784	     1.0167031417504E-17	
     55.217414367572	     1.0582902386995E-17	
     55.248043786742	     1.1011273757682E-17	
     55.278809133956	     1.1442023572499E-17	
      55.30950672199	     1.1889780342458E-17	
     55.340238423114	     1.2355108800199E-17	
     55.371004294224	       1.28385376523E-17	
     55.401702009702	     1.3340924659637E-17	
     55.432536277976	     1.3862965550816E-17	
      55.46330227705	     1.4405549696937E-17	
     55.494102446393	     1.4969168271208E-17	
     55.525039681584	     1.5554912475772E-17	
     55.555805523846	     1.6163732462663E-17	
     55.586708546254	     1.6796228957497E-17	
     55.617645967526	     1.7453473031804E-17	
     55.648514548239	     1.8136419030444E-17	
     55.679417412978	     1.8846130781132E-17	
     55.710354618891	     1.9583607717752E-17	
     55.741326223254	     2.0349965772717E-17	
     55.772332283467	     2.1146315596219E-17	
      55.80326898485	     2.1973844367729E-17	
     55.834344013767	     2.2833612679829E-17	
     55.865349567862	     2.3727244221805E-17	
     55.896389576683	     2.4655745573746E-17	
     55.927464097695	     2.5620561221816E-17	
     55.958573188487	     2.6623128827193E-17	
     55.989612339689	     2.7664982570577E-17	
     56.020790626839	     2.8747463966884E-17	
     56.051898857245	      2.987244077371E-17	
      56.08304165552	     3.1041339193426E-17	
     56.114219079314	     3.2256040404755E-17	
     56.145326036879	     3.3518422753206E-17	
     56.176572768106	     3.4829984602119E-17	
     56.207748914908	     3.6193076315204E-17	
      56.23906518493	     3.7609158515512E-17	
     56.270310752067	     3.9080940700393E-17	
     56.301591057625	     4.0610233223904E-17	
     56.332800306663	     4.2199487598863E-17	
     56.364150145238	     4.3850793582743E-17	
     56.395428807916	     4.5566864419108E-17	
     56.426848411614	     4.7349860276604E-17	
     56.458196719768	     4.9202733924674E-17	
     56.489579878802	     5.1128141051478E-17	
     56.520891385909	     5.3128977813439E-17	
     56.552344302651	     5.5207887883395E-17	
     56.583725446896	     5.7368420173348E-17	
