# TLUSTY OSTAR2002+BSTAR2006
# teff = 45000 K (value for the effective temperature for the model. Temperatures are given in K)
# logg = 4.75 log(cm/s2) (value for Log(G) for the model.)
# z = 1  (Z/Z0)
#
#         WAVELENGTH	#                   FLUX	
#         (ANGSTROM)	#          (ERG/CM2/S/A)	
####################	########################	
     44.882873414538	     1.1586640763018E-21	
     44.907816823029	     1.1953546048701E-21	
     44.932787971259	     1.2465812964669E-21	
     44.957786905528	     1.3000012275577E-21	
     44.982746177196	      1.355713257134E-21	
     45.007733177599	     1.4138135927374E-21	
     45.032747952971	      1.474401708355E-21	
      45.05779054965	     1.5375858864821E-21	
     45.082793218463	     1.6034824291442E-21	
      45.10789152167	     1.6721947054342E-21	
      45.13294983914	     1.7438578057674E-21	
     45.158036012858	     1.8185897156611E-21	
     45.183081991723	     1.8965220708104E-21	
     45.208223941659	     1.9778040324058E-21	
     45.233325638345	     2.0625535033075E-21	
     45.258455225762	     2.1509550918068E-21	
     45.283612750422	     2.2431247507838E-21	
     45.308798258938	     2.3392512806059E-21	
     45.333943244952	     2.4395116455441E-21	
     45.359184785076	     2.5440418856451E-21	
     45.384385743676	     2.6530800232281E-21	
     45.409614720477	     2.7667675203767E-21	
     45.434802903778	     2.8853524970734E-21	
     45.460087980675	     3.0090014098315E-21	
     45.485332204516	     3.1379512756243E-21	
     45.510604480433	     3.2724296674035E-21	
     45.535904855209	     3.4126536242739E-21	
     45.561233375735	     3.5589117505704E-21	
     45.586520769912	     3.7114300746952E-21	
     45.611836249694	     3.8704844381083E-21	
     45.637179861898	      4.036359706408E-21	
     45.662551653443	     4.2093213361752E-21	
     45.687951671355	     4.3897057169004E-21	
     45.713310257544	     4.5778435929422E-21	
     45.738766792027	     4.7740049289107E-21	
     45.764181834002	     4.9786041110433E-21	
      45.78955519781	     5.1919732111024E-21	
     45.815026728651	     5.4144636487116E-21	
     45.840456520044	     5.6465064696303E-21	
     45.865984728293	     5.8884824946111E-21	
     45.891471135712	      6.140821835976E-21	
     45.916985883005	     6.4039895562101E-21	
     45.942458611669	     6.6784326455132E-21	
     45.968030102304	     6.9646246966636E-21	
     45.993559512376	     7.2631010308406E-21	
     46.019117294904	     7.5743679609645E-21	
     46.044703497212	     7.8989497869196E-21	
      46.07024736872	     8.2374823956161E-21	
     46.095890474148	     8.5904884909676E-21	
     46.121491186235	     8.9586248552842E-21	
     46.147120350345	     9.3425568624674E-21	
     46.172778013935	     9.7429189481766E-21	
     46.198393032158	     1.0160479767488E-20	
     46.224107758229	     1.0595876657974E-20	
      46.24977977578	     1.1049974698802E-20	
     46.275480324708	     1.1523522364823E-20	
     46.301209452603	     1.2017348484523E-20	
      46.32689561815	      1.253236936986E-20	
     46.352681967456	     1.3069417747337E-20	
     46.378425290646	     1.3629512159998E-20	
     46.404197224346	     1.4213601400099E-20	
     46.429997816279	     1.4822720766051E-20	
     46.455755126455	     1.5457983496153E-20	
     46.481613098284	     1.6120391033048E-20	
     46.507427723964	     1.6811253374811E-20	
     46.533271039062	     1.7531607319866E-20	
     46.559143091431	     1.8283053791737E-20	
     46.584971540186	     1.9066533770907E-20	
     46.610901130475	     1.9883554393561E-20	
     46.636787052132	     2.0731868614183E-20	
     46.662701741879	     2.1596602005161E-20	
     46.688645247699	     2.2498261292687E-20	
     46.714617617682	     2.3437236339769E-20	
     46.740546026876	     2.4415715396797E-20	
     46.766503234583	     2.5434869811498E-20	
     46.792489288808	     2.6496623278138E-20	
     46.818504237665	     2.7602718605936E-20	
     46.844548129374	     2.8754890364203E-20	
     46.870547733178	     2.9955301532568E-20	
     46.896576213546	     3.1205754647974E-20	
     46.922633618612	     3.2508300625822E-20	
     46.948719996617	     3.3865322524205E-20	
     46.974835395912	     3.5279021479343E-20	
     47.000906177686	     3.6751703444283E-20	
     47.027079682944	     3.8285834171621E-20	
     47.053208503692	     3.9883987794475E-20	
     47.079366375567	     4.1548886860219E-20	
     47.105479331519	     4.3283322039863E-20	
     47.131695368778	     4.5090008305906E-20	
     47.157866422534	     4.6972360528466E-20	
     47.184066556704	     4.8933026801443E-20	
     47.210295819784	     5.0975792163043E-20	
     47.236554260378	     5.3103579724158E-20	
     47.262767416563	     5.5320316331892E-20	
     47.289009682029	     5.7629745526501E-20	
     47.315355781599	     6.0035226981224E-20	
     47.341581734975	     6.2541533914013E-20	
     47.367911619808	     6.5152114815132E-20	
     47.394270808632	     6.7871660317435E-20	
     47.420584341323	     7.0704873991025E-20	
     47.446927109052	      7.365651180778E-20	
     47.473299160566	     7.6731177954253E-20	
     47.499700544723	      7.993412268279E-20	
     47.526055967381	     8.3271002282801E-20	
     47.552516079912	     8.6746833287255E-20	
     47.578930161325	     9.0367995901539E-20	
     47.605373603601	     9.4140206237032E-20	
     47.631846455723	     9.8069914318898E-20	
     47.658273003882	       1.02163864567E-19	
      47.68472889166	     1.0642864590813E-19	
      47.71129009926	     1.1087109188095E-19	
     47.737804897468	     1.1549921120884E-19	
     47.764273082132	     1.2032082737543E-19	
     47.790846818354	     1.2534326161995E-19	
     47.817373870131	     1.3057566153848E-19	
       47.8440067411	     1.3602602908208E-19	
     47.870592856595	     1.4170415655051E-19	
     47.897132011203	     1.4761982022248E-19	
      47.92377721757	     1.5378177194345E-19	
     47.950452085929	     1.6020091303358E-19	
     47.977079885928	     1.6688866806565E-19	
     48.003737276208	     1.7385424262967E-19	
     48.030424306121	     1.8111267684249E-19	
     48.057063988997	     1.8867334697267E-19	
     48.083810360894	     1.9654868606174E-19	
     48.110509313421	     2.0475348478714E-19	
      48.13723793207	     2.1330063077026E-19	
     48.163996266313	      2.222035527901E-19	
     48.190784365732	     2.3147886036961E-19	
     48.217524728589	     2.4114224034663E-19	
     48.244372421162	     2.5120863324991E-19	
     48.271172304081	     2.6169439057727E-19	
     48.298001978367	     2.7261828000538E-19	
     48.324783596886	      2.839990555801E-19	
     48.351672916415	     2.9585429038284E-19	
     48.378514106452	     3.0820513165082E-19	
     48.405385113436	     3.2106985165577E-19	
     48.432285987079	     3.3447236549315E-19	
     48.459216777203	     3.4843487177825E-19	
     48.486177533741	     3.6297946421064E-19	
     48.513089801638	     3.7815176545891E-19	
     48.540031961452	     3.9360630914691E-19	
     48.567004063012	     4.0955289432087E-19	
      48.59400615626	     4.2614614122427E-19	
     48.621038291247	     4.4341089441299E-19	
     48.648021575729	      4.613765614922E-19	
     48.675113856845	     4.8006957755025E-19	
     48.702157212178	     4.9951905671895E-19	
     48.729230634195	     5.1975737042858E-19	
     48.756254879001	     5.4081840252276E-19	
     48.783388496724	     5.6272909680768E-19	
     48.810472861313	     5.8552803844785E-19	
     48.837587316895	       6.09251459692E-19	
     48.864731913645	      6.339355951437E-19	
      48.89190670185	     6.5961965968535E-19	
     48.919031907499	     6.8634649685683E-19	
     48.946267141012	     7.1415213027322E-19	
     48.973452715253	     7.4308764177773E-19	
     49.000668504919	     7.7319394798836E-19	
     49.027914560414	     8.0452026970998E-19	
     49.055110663128	     8.3711833491452E-19	
     49.082417312547	     8.7103309721195E-19	
     49.109673931739	     9.0632336308157E-19	
     49.136960840234	     9.4304404161817E-19	
     49.164278088547	     9.8125250948447E-19	
     49.191625727309	     1.0210074285966E-18	
     49.218923001149	     1.0623768915697E-18	
     49.246250587257	     1.1054204421899E-18	
     49.273689521928	     1.1502045228675E-18	
     49.300996898465	     1.1968088185437E-18	
     49.328415724939	     1.2452977457675E-18	
      49.35586506643	     1.2957504869608E-18	
     49.383263627274	     1.3482496176065E-18	
      49.41069262414	     1.4028765393731E-18	
     49.438152107771	     1.4597148073239E-18	
     49.465642129023	       1.51885527891E-18	
     49.493162738867	     1.5803899199666E-18	
      49.52063218856	     1.6444187655977E-18	
     49.548132147101	     1.7110493976423E-18	
     49.575662665346	     1.7803800859913E-18	
     49.603223794262	     1.8525086338873E-18	
     49.630815584932	     1.9275629670568E-18	
     49.658355833099	     2.0056617770468E-18	
     49.686009009337	     2.0869188227741E-18	
     49.713610562501	     2.1714738636428E-18	
     49.741242799119	     2.2594458662771E-18	
     49.768823148563	     2.3509980702171E-18	
     49.796516813807	     2.4462546949961E-18	
     49.824158510622	     2.5453705476373E-18	
      49.85191380956	     2.6484824010128E-18	
     49.879617058659	     2.7557904550516E-18	
     49.907268032742	      2.867447631374E-18	
     49.935032855013	     2.9836165567112E-18	
      49.96274532025	     3.1045123129341E-18	
       49.9905719212	     3.2302791209004E-18	
     50.018346082938	     3.3611620727324E-18	
     50.046151123813	     3.4973436742741E-18	
     50.073903457491	     3.6390430441122E-18	
     50.101770318216	     3.7864873732272E-18	
     50.129584388874	     3.9399063647862E-18	
     50.157429358728	     4.0995367210359E-18	
     50.185305279299	     4.2656261265389E-18	
     50.213212202218	     4.4384509763902E-18	
     50.241150179234	     4.6182714370541E-18	
     50.269034971226	     4.8053923714161E-18	
     50.296950733586	     5.0000863697417E-18	
     50.324897517936	     5.2026692805213E-18	
     50.352875376018	     5.4134554614592E-18	
     50.380884359686	     5.6327874660354E-18	
     50.408839760426	     5.8610111134616E-18	
     50.436911056863	     6.0984567799938E-18	
     50.464928685775	     6.3455467955371E-18	
     50.492977459489	     6.6026417776976E-18	
     50.520972291971	     6.8701729277636E-18	
     50.549083416516	     7.1485157462891E-18	
     50.577140514523	     7.4364575316134E-18	
     50.605314198034	     7.7278841111539E-18	
     50.633433769533	     8.0307242962363E-18	
     50.661584608495	     8.3454124471129E-18	
     50.689681059539	     8.6724644922542E-18	
     50.717894494652	     9.0123072428161E-18	
      50.74605345566	     9.3654826130193E-18	
     50.774243702176	     9.7324995778815E-18	
     50.802465286368	     1.0113879297809E-17	
     50.830718260522	     1.0510213360226E-17	
     50.858916396221	      1.092209848444E-17	
     50.887232211512	     1.1350091767109E-17	
      50.91549310127	     1.1794881138353E-17	
      50.94378539858	     1.2257082579079E-17	
     50.972109155828	     1.2737404032419E-17	
     51.000377664063	     1.3236580644593E-17	
     51.028764402201	     1.3755254368413E-17	
     51.057095803437	      1.429430178055E-17	
     51.085458681594	     1.4854415611164E-17	
     51.113853089158	     1.5436618506264E-17	
     51.142279078733	     1.6041409793957E-17	
      51.17073670304	     1.6670149580142E-17	
     51.199138575884	     1.7323388533634E-17	
     51.227571994662	     1.8002279000578E-17	
     51.256037011961	     1.8707735620674E-17	
     51.284533680485	     1.9440811911048E-17	
     51.313062053053	       2.02025563977E-17	
     51.341534256522	     2.0994370370098E-17	
     51.370038074415	     2.1817082488614E-17	
     51.398661680974	     2.2671933674893E-17	
     51.427228983866	     2.3560388767692E-17	
     51.455739742063	     2.4483763283619E-17	
     51.484370545666	     2.5443192512216E-17	
      51.51294471412	     2.6440283977224E-17	
     51.541639230398	     2.7476288579807E-17	
      51.57027702089	     2.8552955816324E-17	
      51.59885784312	     2.9671995352796E-17	
     51.627559270721	     3.0834756000887E-17	
     51.656292645944	     3.2043018833817E-17	
      51.68496891583	      3.329871453566E-17	
     51.713677041862	      3.460368554619E-17	
     51.742417077153	     3.5959730591101E-17	
     51.771189074934	     3.7368780390423E-17	
     51.799993088553	     3.8833177691951E-17	
     51.828739568728	     4.0354973003623E-17	
      51.85751797242	     4.1936359982626E-17	
     51.886328352836	     4.3579790310647E-17	
       51.9151707633	      4.528756430992E-17	
     51.944045257258	     4.7062250607407E-17	
     51.972861786504	     4.8906575232336E-17	
     52.001800507889	     5.0823028716947E-17	
     52.030681171293	     5.2814627881577E-17	
     52.059593931901	     5.4884278662924E-17	
     52.088538843251	     5.7035042036222E-17	
        52.117515959	     5.9269964464367E-17	
      52.14643462833	     6.1592707813676E-17	
     52.175385407928	     6.4006506128923E-17	
     52.204368351307	     6.6514775401565E-17	
     52.233383512095	     6.9121329641008E-17	
     52.262430944042	     7.1829964812957E-17	
     52.291510701017	     7.4644596639299E-17	
     52.320531525746	     7.7569943474141E-17	
     52.349584580407	     8.0609770262989E-17	
     52.378669918722	     8.3768622551764E-17	
      52.40778759453	     8.7051298695567E-17	
     52.436937661792	     9.0462437331157E-17	
     52.466120174588	     9.4007339323723E-17	
     52.495243265013	     9.7691349170706E-17	
     52.524398704903	      1.015196767185E-16	
     52.553586548187	     1.0549795852795E-16	
     52.582806848916	     1.0963207694888E-16	
      52.61205966126	     1.1392815864318E-16	
     52.641252605351	     1.1839285293857E-16	
     52.670477964107	     1.2303252424211E-16	
     52.699735791544	     1.2785388964091E-16	
     52.729026141802	     1.3286417635388E-16	
     52.758349069138	     1.3807003599052E-16	
     52.787704627932	      1.434811979112E-16	
     52.816999820298	      1.490156345972E-16	
      52.84632754618	      1.546292539056E-16	
     52.875781119097	      1.604626789583E-16	
     52.905080815514	     1.6651818765458E-16	
     52.934506467778	     1.7280003448614E-16	
     52.963964871182	     1.7932008095583E-16	
     52.993362405584	     1.8608620305165E-16	
     53.022792592186	     1.9310765649026E-16	
     53.052255485419	     2.0039292204967E-16	
     53.081751139834	     2.0795445095057E-16	
     53.111279610106	     2.1580062937732E-16	
     53.140746754398	     2.2394326503333E-16	
     53.170340915943	     2.3239176195802E-16	
     53.199873651559	     2.4115998102237E-16	
     53.229439212511	      2.502593141298E-16	
     53.259037653559	     2.5970188925358E-16	
     53.288574308147	     2.6950073468557E-16	
     53.318238568659	     2.7966863386416E-16	
      53.34784094185	     2.9022213597956E-16	
     53.377476203872	     3.0117216703695E-16	
     53.407144409567	      3.125358370233E-16	
     53.436845613897	     3.2432753665171E-16	
     53.466484516979	      3.365654240372E-16	
     53.496251777751	     3.4926270499042E-16	
     53.525956635386	     3.6244126113765E-16	
     53.555694499774	      3.761166097688E-16	
      53.58546542596	     3.9030801285963E-16	
      53.61526946911	     4.0503464100864E-16	
     53.645010691694	     4.2031707780044E-16	
     53.674881027834	     4.3617528353154E-16	
     53.704688440483	      4.526325190268E-16	
     53.734528977584	     4.6971129477054E-16	
     53.764402694385	     4.8743290528346E-16	
     53.794213118725	     5.0582556586927E-16	
     53.824153253678	     5.2490938983253E-16	
     53.854029992312	     5.4471554066215E-16	
     53.883939917357	     5.6526824157895E-16	
     53.913883084139	      5.865972953377E-16	
     53.943859548105	     6.0872977435284E-16	
     53.973869364828	     6.3169650125779E-16	
     54.003815308791	     6.5553180571548E-16	
     54.033891889846	     6.8026416105573E-16	
     54.063904493116	     7.0593133687929E-16	
     54.093950455335	     7.3256634863914E-16	
     54.124029832154	      7.602056915156E-16	
      54.15404485614	      7.888911064695E-16	
     54.184191120654	     8.1865442555137E-16	
      54.21427292636	     8.4954383775724E-16	
     54.244388152062	     8.8159867604123E-16	
     54.274536853482	     9.1486092307085E-16	
     54.304719086469	     9.4937874885207E-16	
     54.334934906996	     9.8519881912239E-16	
     54.365085784025	     1.0223725600472E-15	
     54.395270141544	     1.0609478580106E-15	
      54.42548803535	     1.1009796108075E-15	
     54.455739521366	     1.1425199153329E-15	
     54.486024655637	     1.1856269650425E-15	
     54.516343494335	     1.2303599446886E-15	
     54.546596847207	     1.2767900007148E-15	
     54.576883796375	     1.3249651157807E-15	
      54.60720439783	     1.3749512275393E-15	
     54.637558707693	     1.4268303660941E-15	
     54.667946782205	     1.4806589646503E-15	
     54.698368677737	     1.5365309583711E-15	
     54.728724540371	      1.594507930634E-15	
       54.7591141148	     1.6546651225932E-15	
     54.789537457212	     1.7170953428576E-15	
     54.819994623921	     1.7818909624765E-15	
     54.850485671368	     1.8491188717944E-15	
     54.881010656117	       1.91888316011E-15	
     54.911469056114	     1.9912822258739E-15	
     54.941961283087	     2.0664124820693E-15	
     54.972487393417	     2.1443890858488E-15	
     55.003047443615	     2.2252892935768E-15	
     55.033641490315	     2.3092521786064E-15	
     55.064168451369	     2.3963876903477E-15	
     55.094830548812	     2.4868040425266E-15	
      55.12542544917	      2.580631694286E-15	
     55.156054347926	     2.6779986000484E-15	
     55.186717301784	     2.7790408703243E-15	
     55.217414367572	     2.8838939695419E-15	
     55.248043786742	     2.9916423079044E-15	
     55.278809133956	     3.0998746057998E-15	
      55.30950672199	     3.2120715491095E-15	
     55.340238423114	     3.3283190404551E-15	
     55.371004294224	      3.448774970279E-15	
     55.401702009702	     3.5735974142099E-15	
     55.432536277976	     3.7029168764021E-15	
      55.46330227705	     3.8369404752688E-15	
     55.494102446393	     3.9758099184541E-15	
     55.525039681584	     4.1196763386765E-15	
     55.555805523846	     4.2687877320498E-15	
     55.586708546254	     4.4232751912676E-15	
     55.617645967526	     4.5833543603678E-15	
     55.648514548239	     4.7492301346996E-15	
     55.679417412978	     4.9211211513615E-15	
     55.710354618891	     5.0992249248304E-15	
     55.741326223254	      5.283762271987E-15	
     55.772332283467	     5.4749892900494E-15	
      55.80326898485	     5.6731456886035E-15	
     55.834344013767	     5.8784437965875E-15	
     55.865349567862	      6.091203411249E-15	
     55.896389576683	     6.3116427359402E-15	
     55.927464097695	     6.5400722100085E-15	
     55.958573188487	     6.7767526800945E-15	
     55.989612339689	     7.0220300561356E-15	
     56.020790626839	     7.2761469989299E-15	
     56.051898857245	     7.5394857182422E-15	
      56.08304165552	     7.8123472443643E-15	
     56.114219079314	     8.0950812043367E-15	
     56.145326036879	     8.3880789298823E-15	
     56.176572768106	     8.6916369369353E-15	
     56.207748914908	     9.0062115602969E-15	
      56.23906518493	     9.3321268883815E-15	
     56.270310752067	     9.6698641143714E-15	
     56.301591057625	     1.0019823725228E-14	
     56.332800306663	     1.0382488802157E-14	
     56.364150145238	     1.0758224688116E-14	
     56.395428807916	     1.1147586327328E-14	
     56.426848411614	     1.1550999976304E-14	
     56.458196719768	     1.1969104618443E-14	
     56.489579878802	     1.2402184996097E-14	
     56.520891385909	     1.2851074540191E-14	
     56.552344302651	     1.3316212056923E-14	
     56.583725446896	     1.3798110087739E-14	
