# TLUSTY OSTAR2002+BSTAR2006
# teff = 47500 K (value for the effective temperature for the model. Temperatures are given in K)
# logg = 3.75 log(cm/s2) (value for Log(G) for the model.)
# z = 1  (Z/Z0)
#
#         WAVELENGTH	#                   FLUX	
#         (ANGSTROM)	#          (ERG/CM2/S/A)	
####################	########################	
     44.882873414538	     3.7624926038856E-19	
     44.907816823029	     3.8730119101624E-19	
     44.932787971259	     4.0270168923797E-19	
     44.957786905528	     4.1871399575707E-19	
     44.982746177196	     4.3536335345945E-19	
     45.007733177599	     4.5267610351011E-19	
     45.032747952971	     4.7067594911649E-19	
      45.05779054965	     4.8939019173093E-19	
     45.082793218463	     5.0885124099887E-19	
      45.10789152167	     5.2908312836859E-19	
      45.13294983914	     5.5012143130358E-19	
     45.158036012858	      5.719969235581E-19	
     45.183081991723	     5.9474170379926E-19	
     45.208223941659	     6.1838979355574E-19	
     45.233325638345	     6.4298037277872E-19	
     45.258455225762	     6.6854700556348E-19	
     45.283612750422	     6.9513039229367E-19	
     45.308798258938	     7.2277104115585E-19	
     45.333943244952	     7.5151154124805E-19	
     45.359184785076	     7.8139122527845E-19	
     45.384385743676	     8.1246197502883E-19	
     45.409614720477	      8.447685425431E-19	
     45.434802903778	     8.7836039230347E-19	
     45.460087980675	     9.1328617828489E-19	
     45.485332204516	     9.4960131625368E-19	
     45.510604480433	     9.8736198862993E-19	
     45.535904855209	     1.0266213121564E-18	
     45.561233375735	     1.0674430398104E-18	
     45.586520769912	     1.1098885605655E-18	
     45.611836249694	     1.1540215626928E-18	
     45.637179861898	     1.1999103466009E-18	
     45.662551653443	     1.2476210829364E-18	
     45.687951671355	     1.2972304566292E-18	
     45.713310257544	     1.3488134954815E-18	
     45.738766792027	     1.4024435200187E-18	
     45.764181834002	     1.4582099326079E-18	
      45.78955519781	     1.5161974773371E-18	
     45.815026728651	     1.5764844942258E-18	
     45.840456520044	     1.6391710358407E-18	
     45.865984728293	     1.7043463906333E-18	
     45.891471135712	     1.7721176566955E-18	
     45.916985883005	     1.8425816004966E-18	
     45.942458611669	     1.9158596696431E-18	
     45.968030102304	     1.9920322100737E-18	
     45.993559512376	     2.0712435937261E-18	
     46.019117294904	      2.153601938195E-18	
     46.044703497212	     2.2392384608769E-18	
      46.07024736872	     2.3282731656805E-18	
     46.095890474148	     2.4208575271304E-18	
     46.121491186235	     2.5171177602464E-18	
     46.147120350345	     2.6171931792695E-18	
     46.172778013935	     2.7212649028797E-18	
     46.198393032158	      2.829486618386E-18	
     46.224107758229	      2.941985512102E-18	
      46.24977977578	     3.0589758267924E-18	
     46.275480324708	     3.1806091983082E-18	
     46.301209452603	     3.3070803647142E-18	
      46.32689561815	     3.4385762183329E-18	
     46.352681967456	     3.5753039601574E-18	
     46.378425290646	     3.7174772328254E-18	
     46.404197224346	     3.8652939671805E-18	
     46.429997816279	     4.0189792074366E-18	
     46.455755126455	     4.1788047953347E-18	
     46.481613098284	     4.3449507122189E-18	
     46.507427723964	      4.517717469824E-18	
     46.533271039062	     4.6973649344581E-18	
     46.559143091431	      4.884147255905E-18	
     46.584971540186	     5.0783678760856E-18	
     46.610901130475	     5.2802821634675E-18	
     46.636787052132	      5.489185367988E-18	
     46.662701741879	     5.7014039631757E-18	
     46.688645247699	     5.9219376589038E-18	
     46.714617617682	     6.1509819461627E-18	
     46.740546026876	     6.3889064692288E-18	
     46.766503234583	     6.6360237125047E-18	
     46.792489288808	     6.8926974455491E-18	
     46.818504237665	     7.1592897152829E-18	
     46.844548129374	     7.4361951838601E-18	
     46.870547733178	     7.7238307942952E-18	
     46.896576213546	     8.0225994743269E-18	
     46.922633618612	     8.3329073900997E-18	
     46.948719996617	      8.655210049248E-18	
     46.974835395912	     8.9899778734336E-18	
     47.000906177686	     9.3377083317914E-18	
     47.027079682944	     9.6988610816011E-18	
     47.053208503692	     1.0074010533483E-17	
     47.079366375567	     1.0463656709618E-17	
     47.105479331519	     1.0868394506833E-17	
     47.131695368778	     1.1288765914973E-17	
     47.157866422534	     1.1725412881165E-17	
     47.184066556704	     1.2178938563298E-17	
     47.210295819784	     1.2649994157174E-17	
     47.236554260378	     1.3139278420429E-17	
     47.262767416563	     1.3647512965584E-17	
     47.289009682029	     1.4175400876035E-17	
     47.315355781599	     1.4723651911758E-17	
     47.341581734975	      1.529319176765E-17	
     47.367911619808	     1.5884697133359E-17	
     47.394270808632	     1.6499077042076E-17	
     47.420584341323	       1.71373111849E-17	
     47.446927109052	     1.7800053144771E-17	
     47.473299160566	     1.8488538210989E-17	
     47.499700544723	     1.9203678648041E-17	
     47.526055967381	     1.9946445607504E-17	
     47.552516079912	     2.0717951854092E-17	
     47.578930161325	      2.151939107253E-17	
     47.605373603601	     2.2351759770006E-17	
     47.631846455723	     2.3216278689304E-17	
     47.658273003882	     2.4114239455787E-17	
      47.68472889166	     2.5046946276934E-17	
      47.71129009926	     2.6015685050403E-17	
     47.737804897468	     2.7021980363028E-17	
     47.764273082132	      2.806719771992E-17	
     47.790846818354	     2.9152840937213E-17	
     47.817373870131	     3.0280434404827E-17	
       47.8440067411	     3.1451617754808E-17	
     47.870592856595	     3.2668079874398E-17	
     47.897132011203	     3.3931810146774E-17	
      47.92377721757	     3.5244236156498E-17	
     47.950452085929	     3.6607258420469E-17	
     47.977079885928	     3.8023277268369E-17	
     48.003737276208	     3.9493957993097E-17	
     48.030424306121	     4.1021559970068E-17	
     48.057063988997	     4.2608305377953E-17	
     48.083810360894	     4.4256327895426E-17	
     48.110509313421	     4.5968133901413E-17	
      48.13723793207	     4.7746129364784E-17	
     48.163996266313	     4.9592844826075E-17	
     48.190784365732	     5.1511123250126E-17	
     48.217524728589	     5.3503480150503E-17	
     48.244372421162	     5.5572881373087E-17	
     48.271172304081	     5.7722481116468E-17	
     48.298001978367	     5.9955058915024E-17	
     48.324783596886	     6.2274237090544E-17	
     48.351672916415	     6.4682866233931E-17	
     48.378514106452	     6.7184746137965E-17	
     48.405385113436	     6.9783372199803E-17	
     48.432285987079	     7.2482583695137E-17	
     48.459216777203	     7.5286041291786E-17	
     48.486177533741	     7.8198029211092E-17	
     48.513089801638	     8.1226435770601E-17	
     48.540031961452	     8.4304578389252E-17	
     48.567004063012	     8.7472522657638E-17	
      48.59400615626	     9.0759306898475E-17	
     48.621038291247	     9.4169775749047E-17	
     48.648021575729	     9.7708590473439E-17	
     48.675113856845	     1.0137992935942E-16	
     48.702157212178	     1.0518953484236E-16	
     48.729230634195	     1.0914216219951E-16	
     48.756254879001	     1.1324370344705E-16	
     48.783388496724	     1.1749893339673E-16	
     48.810472861313	     1.2191423324331E-16	
     48.837587316895	     1.2649562858747E-16	
     48.864731913645	     1.3124885202137E-16	
      48.89190670185	     1.3618071193614E-16	
     48.919031907499	     1.4129828815853E-16	
     48.946267141012	     1.4660757769379E-16	
     48.973452715253	     1.5211670468152E-16	
     49.000668504919	     1.5783330019672E-16	
     49.027914560414	     1.6376400763257E-16	
     49.055110663128	      1.699181862526E-16	
     49.082417312547	     1.7630178649531E-16	
     49.109673931739	     1.8292763693339E-16	
     49.136960840234	     1.8980214191568E-16	
     49.164278088547	     1.9693378673238E-16	
     49.191625727309	     2.0433412978139E-16	
     49.218923001149	     2.1201226096488E-16	
     49.246250587257	     2.1997899731729E-16	
     49.273689521928	     2.2824499741081E-16	
     49.300996898465	     2.3682231697925E-16	
     49.328415724939	      2.457215594603E-16	
      49.35586506643	      2.549547221585E-16	
     49.383263627274	     2.6453541460317E-16	
      49.41069262414	     2.7447550920758E-16	
     49.438152107771	      2.847891680486E-16	
     49.465642129023	     2.9549202575968E-16	
     49.493162738867	     3.0659502929645E-16	
      49.52063218856	     3.1811626827427E-16	
     49.548132147101	     3.3007019558745E-16	
     49.575662665346	     3.4247369874531E-16	
     49.603223794262	     3.5534205409036E-16	
     49.630815584932	     3.6869505311543E-16	
     49.658355833099	     3.8255060577176E-16	
     49.686009009337	     3.9692431469417E-16	
     49.713610562501	     4.1183981780604E-16	
     49.741242799119	     4.2731528226826E-16	
     49.768823148563	     4.4337304297552E-16	
     49.796516813807	     4.6003401394862E-16	
     49.824158510622	     4.7732185408214E-16	
      49.85191380956	     4.9525552198431E-16	
     49.879617058659	     5.1386627837323E-16	
     49.907268032742	     5.3317767150564E-16	
     49.935032855013	     5.5321248836435E-16	
      49.96274532025	     5.7400200604652E-16	
       49.9905719212	     5.9556848598178E-16	
     50.018346082938	     6.1794925254806E-16	
     50.046151123813	     6.4116964599515E-16	
     50.073903457491	     6.6526502150219E-16	
     50.101770318216	     6.9026249404219E-16	
     50.129584388874	     7.1620092257148E-16	
     50.157429358728	     7.4311375189259E-16	
     50.185305279299	     7.7103797570239E-16	
     50.213212202218	     8.0001190615799E-16	
     50.241150179234	     8.3007218084005E-16	
     50.269034971226	      8.612656046194E-16	
     50.296950733586	     8.9363023964288E-16	
     50.324897517936	     9.2720960905049E-16	
     50.352875376018	     9.6205148666962E-16	
     50.380884359686	     9.9820193564412E-16	
     50.408839760426	     1.0357132477381E-15	
     50.436911056863	     1.0746301279826E-15	
     50.464928685775	     1.1150124575963E-15	
     50.492977459489	     1.1569107676042E-15	
     50.520972291971	     1.2003872888186E-15	
     50.549083416516	      1.245493467111E-15	
     50.577140514523	     1.2920492427334E-15	
     50.605314198034	     1.3391465575344E-15	
     50.633433769533	     1.3879618926133E-15	
     50.661584608495	     1.4385538974616E-15	
     50.689681059539	     1.4910020526738E-15	
     50.717894494652	     1.5453485792546E-15	
      50.74605345566	     1.6016834224024E-15	
     50.774243702176	     1.6600676934985E-15	
     50.802465286368	     1.7205672291389E-15	
     50.830718260522	     1.7832912916098E-15	
     50.858916396221	     1.8482966459612E-15	
     50.887232211512	      1.915664870285E-15	
      50.91549310127	     1.9855022000802E-15	
      50.94378539858	     2.0578808748952E-15	
     50.972109155828	      2.132893527961E-15	
     51.000377664063	     2.2106398726131E-15	
     51.028764402201	     2.2912258310949E-15	
     51.057095803437	     2.3747435082906E-15	
     51.085458681594	     2.4613051093135E-15	
     51.113853089158	     2.5510297949775E-15	
     51.142279078733	     2.6440217575916E-15	
      51.17073670304	     2.7403990769685E-15	
     51.199138575884	     2.8402889709382E-15	
     51.227571994662	     2.9438281215407E-15	
     51.256037011961	     3.0511328647557E-15	
     51.284533680485	     3.1623619487234E-15	
     51.313062053053	     3.2776304485363E-15	
     51.341534256522	      3.397107393244E-15	
     51.370038074415	     3.5209386549381E-15	
     51.398661680974	     3.6492819280867E-15	
     51.427228983866	      3.782302688071E-15	
     51.455739742063	     3.9201852443268E-15	
     51.484370545666	     4.0630852322864E-15	
      51.51294471412	      4.211197089071E-15	
     51.541639230398	     4.3646869553213E-15	
      51.57027702089	      4.523792138004E-15	
      51.59885784312	     4.6887070153378E-15	
     51.627559270721	     4.8596199618137E-15	
     51.656292645944	     5.0367514341743E-15	
      51.68496891583	     5.2203515490359E-15	
     51.713677041862	     5.4106487369341E-15	
     51.742417077153	      5.607887002333E-15	
     51.771189074934	     5.8122951319323E-15	
     51.799993088553	     6.0241569751117E-15	
     51.828739568728	     6.2437625992317E-15	
      51.85751797242	     6.4713732201829E-15	
     51.886328352836	     6.7072687900163E-15	
       51.9151707633	     6.9517558801493E-15	
     51.944045257258	     7.2051535655428E-15	
     51.972861786504	     7.4678192419584E-15	
     52.001800507889	     7.7400180753321E-15	
     52.030681171293	     8.0221591068367E-15	
     52.059593931901	     8.3145849818876E-15	
     52.088538843251	     8.6176624861713E-15	
        52.117515959	     8.9317843944654E-15	
      52.14643462833	     9.2573876696116E-15	
     52.175385407928	     9.5948453195696E-15	
     52.204368351307	     9.9445998474324E-15	
     52.233383512095	     1.0307105461514E-14	
     52.262430944042	     1.0682814208846E-14	
     52.291510701017	     1.1072203533106E-14	
     52.320531525746	     1.1475829942293E-14	
     52.349584580407	     1.1894156594046E-14	
     52.378669918722	     1.2327722700948E-14	
      52.40778759453	      1.277709234235E-14	
     52.436937661792	     1.3242826913329E-14	
     52.466120174588	     1.3725567243772E-14	
     52.495243265013	     1.4225864235371E-14	
     52.524398704903	     1.4744416206979E-14	
     52.553586548187	     1.5281977934097E-14	
     52.582806848916	     1.5839028122537E-14	
      52.61205966126	     1.6416315330505E-14	
     52.641252605351	      1.701478026214E-14	
     52.670477964107	     1.7634972787373E-14	
     52.699735791544	     1.8277902350842E-14	
     52.729026141802	      1.894403167172E-14	
     52.758349069138	      1.963463323051E-14	
     52.787704627932	     2.0350297597604E-14	
     52.816999820298	     2.1082233499424E-14	
      52.84632754618	     2.1825187779509E-14	
     52.875781119097	     2.2595344257597E-14	
     52.905080815514	     2.3392712323378E-14	
     52.934506467778	     2.4218302765244E-14	
     52.963964871182	     2.5072902125557E-14	
     52.993362405584	     2.5957707981986E-14	
     53.022792592186	     2.6873735694346E-14	
     53.052255485419	     2.7822214760456E-14	
     53.081751139834	     2.8803967744646E-14	
     53.111279610106	     2.9820480947801E-14	
     53.140746754398	     3.0872809499251E-14	
     53.170340915943	     3.1962345778029E-14	
     53.199873651559	     3.3090247122807E-14	
     53.229439212511	     3.4257998960512E-14	
     53.259037653559	     3.5466923007321E-14	
     53.288574308147	     3.6718597841464E-14	
     53.318238568659	     3.8014340713438E-14	
      53.34784094185	     3.9355983851314E-14	
     53.377476203872	     4.0744823663987E-14	
     53.407144409567	     4.2182676461953E-14	
     53.436845613897	     4.3671218003184E-14	
     53.466484516979	      4.521254086214E-14	
     53.496251777751	     4.6807987131637E-14	
     53.525956635386	     4.8459799378392E-14	
     53.555694499774	     5.0169984343488E-14	
      53.58546542596	     5.1940437350939E-14	
      53.61526946911	     5.3773437787054E-14	
     53.645010691694	     5.5671191617424E-14	
     53.674881027834	     5.7635696876609E-14	
     53.704688440483	     5.9669737666799E-14	
     53.734528977584	     6.1775482143256E-14	
     53.764402694385	     6.3955416703498E-14	
     53.794213118725	     6.6212644032096E-14	
     53.824153253678	     6.8549158746824E-14	
     53.854029992312	     7.0968284394437E-14	
     53.883939917357	     7.3472739654086E-14	
     53.913883084139	       7.60655963492E-14	
     53.943859548105	     7.8749911662895E-14	
     53.973869364828	      8.152885747812E-14	
     54.003815308791	      8.440615294846E-14	
     54.033891889846	     8.7384728581879E-14	
     54.063904493116	       9.04684574121E-14	
     54.093950455335	     9.3661175251606E-14	
     54.124029832154	     9.6966359377438E-14	
      54.15404485614	     1.0038847531778E-13	
     54.184191120654	     1.0393102232295E-13	
      54.21427292636	     1.0759880301666E-13	
     54.244388152062	     1.1139601211168E-13	
     54.274536853482	     1.1532718530909E-13	
     54.304719086469	      1.193969643974E-13	
     54.334934906996	     1.2361035178588E-13	
     54.365085784025	     1.2797215282679E-13	
     54.395270141544	     1.3248893067194E-13	
      54.42548803535	     1.3716459588156E-13	
     54.455739521366	     1.4200494546069E-13	
     54.486024655637	     1.4701574880323E-13	
     54.516343494335	     1.5220401531633E-13	
     54.546596847207	     1.5757602847037E-13	
     54.576883796375	     1.6313693855323E-13	
      54.60720439783	     1.6889366625036E-13	
     54.637558707693	      1.748543612776E-13	
     54.667946782205	     1.8102461372175E-13	
     54.698368677737	     1.8741250476366E-13	
     54.728724540371	     1.9402678559583E-13	
       54.7591141148	     2.0087354668926E-13	
     54.789537457212	     2.0796327105843E-13	
     54.819994623921	     2.1530137811963E-13	
     54.850485671368	      2.228995213213E-13	
     54.881010656117	     2.3076554700352E-13	
     54.911469056114	     2.3890938816345E-13	
     54.941961283087	      2.473404947434E-13	
     54.972487393417	     2.5606908353158E-13	
     55.003047443615	     2.6510532259149E-13	
     55.033641490315	     2.7446057519845E-13	
     55.064168451369	     2.8414719431793E-13	
     55.094830548812	     2.9417438487993E-13	
      55.12542544917	     3.0455547576798E-13	
     55.156054347926	     3.1530305128266E-13	
     55.186717301784	     3.2643067488933E-13	
     55.217414367572	     3.3794937429709E-13	
     55.248043786742	     3.4978131435836E-13	
     55.278809133956	     3.6170587216188E-13	
      55.30950672199	     3.7404301522617E-13	
     55.340238423114	     3.8679985773657E-13	
     55.371004294224	     3.9999213351351E-13	
     55.401702009702	     4.1363580295617E-13	
     55.432536277976	     4.2774222382474E-13	
      55.46330227705	     4.4233125291075E-13	
     55.494102446393	     4.5741802965149E-13	
     55.525039681584	     4.7301739051374E-13	
     55.555805523846	      4.891511011476E-13	
     55.586708546254	      5.058339925377E-13	
     55.617645967526	      5.230853730411E-13	
     55.648514548239	     5.4092593898774E-13	
     55.679417412978	     5.5937606532784E-13	
     55.710354618891	     5.7845425569523E-13	
     55.741326223254	      5.981825618825E-13	
     55.772332283467	     6.1858414147974E-13	
      55.80326898485	     6.3968200332374E-13	
     55.834344013767	     6.6149803719899E-13	
     55.865349567862	     6.8405991651691E-13	
     55.896389576683	     7.0739039245441E-13	
     55.927464097695	     7.3151688614135E-13	
     55.958573188487	     7.5646548477898E-13	
     55.989612339689	     7.8226627395338E-13	
     56.020790626839	     8.0894534594899E-13	
     56.051898857245	     8.3653553984813E-13	
      56.08304165552	     8.6506669009075E-13	
     56.114219079314	     8.9457020054586E-13	
     56.145326036879	     9.2508317972448E-13	
     56.176572768106	      9.566334941071E-13	
     56.207748914908	     9.8926152002187E-13	
      56.23906518493	     1.0229990801229E-12	
     56.270310752067	     1.0578890878437E-12	
     56.301591057625	     1.0939701645261E-12	
     56.332800306663	     1.1312839423775E-12	
     56.364150145238	     1.1698651955924E-12	
     56.395428807916	     1.2097631392845E-12	
     56.426848411614	     1.2510233859339E-12	
     56.458196719768	     1.2936953239672E-12	
     56.489579878802	     1.3378167017979E-12	
     56.520891385909	     1.3834466240954E-12	
     56.552344302651	     1.4306284703554E-12	
     56.583725446896	     1.4794262425184E-12	
