# TLUSTY OSTAR2002+BSTAR2006
# teff = 55000 K (value for the effective temperature for the model. Temperatures are given in K)
# logg = 4.5 log(cm/s2) (value for Log(G) for the model.)
# z = 1  (Z/Z0)
#
#         WAVELENGTH	#                   FLUX	
#         (ANGSTROM)	#          (ERG/CM2/S/A)	
####################	########################	
     44.882873414538	     2.7356850144978E-14	
     44.907816823029	     2.8034456634627E-14	
     44.932787971259	      2.897528724269E-14	
     44.957786905528	     2.9947710316399E-14	
     44.982746177196	     3.0952825050199E-14	
     45.007733177599	     3.1991732332774E-14	
     45.032747952971	     3.3065428484936E-14	
      45.05779054965	     3.4175090569282E-14	
     45.082793218463	     3.5321996243412E-14	
      45.10789152167	     3.6507287606718E-14	
      45.13294983914	     3.7732525496488E-14	
     45.158036012858	     3.8998942118952E-14	
     45.183081991723	     4.0307806467169E-14	
     45.208223941659	     4.1660574589045E-14	
     45.233325638345	     4.3058812529077E-14	
     45.258455225762	     4.4503895376636E-14	
     45.283612750422	     4.5997496261434E-14	
     45.308798258938	     4.7541096818597E-14	
     45.333943244952	     4.9136686752129E-14	
     45.359184785076	     5.0785623138122E-14	
     45.384385743676	     5.2490032778333E-14	
     45.409614720477	     5.4251765719087E-14	
     45.434802903778	     5.6072616054887E-14	
     45.460087980675	      5.795423049307E-14	
     45.485332204516	     5.9899290657431E-14	
     45.510604480433	     6.1909587821059E-14	
     45.535904855209	     6.3987255455135E-14	
     45.561233375735	      6.613477975652E-14	
     45.586520769912	      6.835429910978E-14	
     45.611836249694	     7.0648446332036E-14	
     45.637179861898	     7.3019492590653E-14	
     45.662551653443	     7.5470059454627E-14	
     45.687951671355	     7.8002755943382E-14	
     45.713310257544	     8.0620784967717E-14	
     45.738766792027	     8.3326245957874E-14	
     45.764181834002	     8.6122749519382E-14	
      45.78955519781	     8.9013237936079E-14	
     45.815026728651	     9.2000617315883E-14	
     45.840456520044	     9.5088327816785E-14	
     45.865984728293	     9.8279386545102E-14	
     45.891471135712	     1.0157759954713E-13	
     45.916985883005	     1.0498659013218E-13	
     45.942458611669	     1.0851022936643E-13	
     45.968030102304	     1.1215174147456E-13	
     45.993559512376	     1.1591584126369E-13	
     46.019117294904	     1.1980603762798E-13	
     46.044703497212	     1.2382668662902E-13	
      46.07024736872	     1.2798269434067E-13	
     46.095890474148	     1.3227760131563E-13	
     46.121491186235	     1.3671703295791E-13	
     46.147120350345	     1.4130539858322E-13	
     46.172778013935	     1.4604765455083E-13	
     46.198393032158	     1.5094937519209E-13	
     46.224107758229	     1.5601508314148E-13	
      46.24977977578	      1.612513131002E-13	
     46.275480324708	     1.6666298606789E-13	
     46.301209452603	     1.7225616528232E-13	
      46.32689561815	     1.7803831289882E-13	
     46.352681967456	     1.8401224548578E-13	
     46.378425290646	     1.9018856694917E-13	
     46.404197224346	     1.9657126931078E-13	
     46.429997816279	     2.0316836743754E-13	
     46.455755126455	     2.0998674332574E-13	
     46.481613098284	     2.1703306227916E-13	
     46.507427723964	     2.2431829809049E-13	
     46.533271039062	     2.3184618573919E-13	
     46.559143091431	      2.396263023887E-13	
     46.584971540186	     2.4766894950473E-13	
     46.610901130475	     2.5598036633785E-13	
     46.636787052132	     2.6453346106945E-13	
     46.662701741879	     2.7319166046409E-13	
     46.688645247699	     2.8213603252213E-13	
     46.714617617682	     2.9137420533569E-13	
     46.740546026876	     3.0091643245807E-13	
     46.766503234583	      3.107693859477E-13	
     46.792489288808	     3.2094402077277E-13	
     46.818504237665	     3.3145295828937E-13	
     46.844548129374	     3.4230532644919E-13	
     46.870547733178	     3.5351474381923E-13	
     46.896576213546	     3.6509091918393E-13	
     46.922633618612	     3.7704454473702E-13	
     46.948719996617	     3.8939138838193E-13	
     46.974835395912	     4.0214031447751E-13	
     47.000906177686	     4.1530826704529E-13	
     47.027079682944	     4.2890654904372E-13	
     47.053208503692	     4.4294990702383E-13	
     47.079366375567	     4.5745417915972E-13	
     47.105479331519	     4.7243281572052E-13	
     47.131695368778	     4.8790158757692E-13	
     47.157866422534	     5.0387703666345E-13	
     47.184066556704	     5.2037621383033E-13	
     47.210295819784	       5.37415876063E-13	
     47.236554260378	     5.5501101136347E-13	
     47.262767416563	     5.7318508811177E-13	
     47.289009682029	     5.9195460841387E-13	
     47.315355781599	     6.1133574978372E-13	
     47.341581734975	     6.3135400211174E-13	
     47.367911619808	     6.5202654041532E-13	
     47.394270808632	     6.7337479467201E-13	
     47.420584341323	     6.9542539667065E-13	
     47.446927109052	     7.1819558773755E-13	
     47.473299160566	     7.4171293373558E-13	
     47.499700544723	     7.6599819066385E-13	
     47.526055967381	     7.9108119324069E-13	
     47.552516079912	      8.169825385712E-13	
     47.578930161325	     8.4373273916104E-13	
     47.605373603601	     8.7135956661625E-13	
     47.631846455723	     8.9988983533483E-13	
     47.658273003882	     9.2935816100089E-13	
      47.68472889166	     9.5978998155622E-13	
      47.71129009926	     9.9121352116301E-13	
     47.737804897468	      1.023669519524E-12	
     47.764273082132	      1.057191010481E-12	
     47.790846818354	     1.0918055791763E-12	
     47.817373870131	     1.1275574237853E-12	
       47.8440067411	      1.164474986575E-12	
     47.870592856595	     1.2026042220365E-12	
     47.897132011203	     1.2419839610991E-12	
      47.92377721757	     1.2826495940096E-12	
     47.950452085929	     1.3246463115121E-12	
     47.977079885928	     1.3680212798983E-12	
     48.003737276208	     1.4128146287445E-12	
     48.030424306121	     1.4590752750414E-12	
     48.057063988997	     1.5068534703349E-12	
     48.083810360894	     1.5561914326337E-12	
     48.110509313421	     1.6071472116289E-12	
      48.13723793207	     1.6597672275056E-12	
     48.163996266313	     1.7141138529832E-12	
     48.190784365732	     1.7702507863313E-12	
     48.217524728589	     1.8282100342776E-12	
     48.244372421162	     1.8880707632614E-12	
     48.271172304081	     1.9498867473372E-12	
     48.298001978367	     2.0137421704385E-12	
     48.324783596886	     2.0796849828547E-12	
     48.351672916415	     2.1477752653161E-12	
     48.378514106452	      2.218099581762E-12	
     48.405385113436	     2.2907238171717E-12	
     48.432285987079	     2.3657362734269E-12	
     48.459216777203	     2.4431927477865E-12	
     48.486177533741	      2.523196836223E-12	
     48.513089801638	     2.6058920931954E-12	
     48.540031961452	     2.6895663636867E-12	
     48.567004063012	     2.7751901839675E-12	
      48.59400615626	     2.8635383188402E-12	
     48.621038291247	     2.9546968125782E-12	
     48.648021575729	     3.0487771078946E-12	
     48.675113856845	     3.1458289980921E-12	
     48.702157212178	     3.2459732991778E-12	
     48.729230634195	     3.3493162158105E-12	
     48.756254879001	     3.4559528407195E-12	
     48.783388496724	     3.5659761578293E-12	
     48.810472861313	     3.6795077757381E-12	
     48.837587316895	     3.7966505440371E-12	
     48.864731913645	     3.9175180058387E-12	
      48.89190670185	      4.042238917516E-12	
     48.919031907499	     4.1709392888405E-12	
     48.946267141012	     4.3037199146969E-12	
     48.973452715253	     4.4407354520184E-12	
     49.000668504919	     4.5821143729098E-12	
     49.027914560414	     4.7279824081268E-12	
     49.055110663128	     4.8785276097756E-12	
     49.082417312547	     5.0338272814489E-12	
     49.109673931739	     5.1940845656145E-12	
     49.136960840234	     5.3594533934353E-12	
     49.164278088547	     5.5300716773412E-12	
     49.191625727309	     5.7061233627144E-12	
     49.218923001149	     5.8877952969322E-12	
     49.246250587257	     6.0752516399016E-12	
     49.273689521928	     6.2686532087197E-12	
     49.300996898465	     6.4682423721732E-12	
     49.328415724939	     6.6741524718051E-12	
      49.35586506643	     6.8866292646945E-12	
     49.383263627274	     7.1058893401714E-12	
      49.41069262414	     7.3321184781776E-12	
     49.438152107771	     7.5655388344481E-12	
     49.465642129023	     7.8064022893143E-12	
     49.493162738867	     8.0549133809152E-12	
      49.52063218856	      8.311364557673E-12	
     49.548132147101	     8.5759785177329E-12	
     49.575662665346	     8.8490025248615E-12	
     49.603223794262	     9.1307285828661E-12	
     49.630815584932	     9.4214014165977E-12	
     49.658355833099	     9.7213731522988E-12	
     49.686009009337	     1.0030837774337E-11	
     49.713610562501	      1.035019311824E-11	
     49.741242799119	     1.0679692125384E-11	
     49.768823148563	     1.1019731195532E-11	
     49.796516813807	     1.1370535661689E-11	
     49.824158510622	     1.1732551718007E-11	
      49.85191380956	     1.2106042290331E-11	
     49.879617058659	     1.2491455018109E-11	
     49.907268032742	       1.28891755905E-11	
     49.935032855013	     1.3299514616043E-11	
      49.96274532025	     1.3722937456615E-11	
       49.9905719212	     1.4159790636382E-11	
     50.018346082938	     1.4610601641519E-11	
     50.046151123813	     1.5075727129771E-11	
     50.073903457491	      1.555573971128E-11	
     50.101770318216	     1.6050965254413E-11	
     50.129584388874	     1.6561905535009E-11	
     50.157429358728	     1.7089202361335E-11	
     50.185305279299	     1.7633247079854E-11	
     50.213212202218	     1.8194727937519E-11	
     50.241150179234	     1.8773882178287E-11	
     50.269034971226	     1.9371607083355E-11	
     50.296950733586	     1.9988372470067E-11	
     50.324897517936	     2.0624706533284E-11	
     50.352875376018	     2.1281283486639E-11	
     50.380884359686	     2.1958774318136E-11	
     50.408839760426	     2.2657922991357E-11	
     50.436911056863	     2.3379244133095E-11	
     50.464928685775	     2.4123554104662E-11	
     50.492977459489	     2.4891582851511E-11	
     50.520972291971	     2.5684071631234E-11	
     50.549083416516	     2.6501796494028E-11	
     50.577140514523	      2.734072089775E-11	
     50.605314198034	     2.8184553296403E-11	
     50.633433769533	     2.9054178938322E-11	
     50.661584608495	     2.9950736150418E-11	
     50.689681059539	      3.087496767199E-11	
     50.717894494652	     3.1827596056187E-11	
      50.74605345566	     3.2809757242377E-11	
     50.774243702176	     3.3822120197905E-11	
     50.802465286368	     3.4865746458058E-11	
     50.830718260522	     3.5941546680276E-11	
     50.858916396221	     3.7050698462308E-11	
     50.887232211512	     3.8193855680669E-11	
      50.91549310127	     3.9372461543339E-11	
      50.94378539858	     4.0587282300644E-11	
     50.972109155828	      4.183964053561E-11	
     51.000377664063	     4.3130854437322E-11	
     51.028764402201	     4.4461656237923E-11	
     51.057095803437	     4.5833504966095E-11	
     51.085458681594	     4.7247842387674E-11	
     51.113853089158	     4.8705672697962E-11	
     51.142279078733	     5.0208571276336E-11	
      51.17073670304	     5.1757818236397E-11	
     51.199138575884	     5.3354869709296E-11	
     51.227571994662	     5.5001253252168E-11	
     51.256037011961	     5.6698516228884E-11	
     51.284533680485	     5.8447912076561E-11	
     51.313062053053	     6.0251403458709E-11	
     51.341534256522	     6.2110584757572E-11	
     51.370038074415	     6.4027202512735E-11	
     51.398661680974	     6.6002682419457E-11	
     51.427228983866	     6.8039256456856E-11	
     51.455739742063	     7.0138866072466E-11	
     51.484370545666	      7.230309027366E-11	
      51.51294471412	     7.4534177812662E-11	
     51.541639230398	     7.6833800477165E-11	
      51.57027702089	     7.9204644655265E-11	
      51.59885784312	     8.1648891136413E-11	
     51.627559270721	     8.4168132091807E-11	
     51.656292645944	     8.6765198636038E-11	
      51.68496891583	     8.9442522442145E-11	
     51.713677041862	     9.2202490875716E-11	
     51.742417077153	     9.5047486943748E-11	
     51.771189074934	     9.7980303771133E-11	
     51.799993088553	      1.010034402665E-10	
     51.828739568728	      1.041203041843E-10	
      51.85751797242	     1.0733317099534E-10	
     51.886328352836	     1.1064506168419E-10	
       51.9151707633	     1.1405912247337E-10	
     51.944045257258	     1.1757848444366E-10	
     51.972861786504	      1.212068232788E-10	
     52.001800507889	     1.2494655138682E-10	
     52.030681171293	     1.2880202564472E-10	
     52.059593931901	     1.3277645150019E-10	
     52.088538843251	     1.3687343719869E-10	
        52.117515959	     1.4109657355359E-10	
      52.14643462833	     1.4545104830276E-10	
     52.175385407928	     1.4993952441549E-10	
     52.204368351307	     1.5456567797342E-10	
     52.233383512095	     1.5933454797757E-10	
     52.262430944042	     1.6425114942492E-10	
     52.291510701017	     1.6931909559964E-10	
     52.320531525746	     1.7454396742787E-10	
     52.349584580407	     1.7993014175274E-10	
     52.378669918722	      1.854825442908E-10	
      52.40778759453	     1.9120470535652E-10	
     52.436937661792	     1.9710561807689E-10	
     52.466120174588	     2.0318739065177E-10	
     52.495243265013	      2.094569545446E-10	
     52.524398704903	     2.1591979052654E-10	
     52.553586548187	     2.2258203930094E-10	
     52.582806848916	     2.2944981202803E-10	
      52.61205966126	     2.3653055137282E-10	
     52.641252605351	     2.4382844229758E-10	
     52.670477964107	     2.5135278360404E-10	
     52.699735791544	     2.5910956216916E-10	
     52.729026141802	       2.67104735637E-10	
     52.758349069138	     2.7534558592913E-10	
     52.787704627932	      2.838420637255E-10	
     52.816999820298	     2.9247140760124E-10	
      52.84632754618	     3.0117415565766E-10	
     52.875781119097	     3.1014565071866E-10	
     52.905080815514	     3.1938688016701E-10	
     52.934506467778	     3.2890303002076E-10	
     52.963964871182	     3.3870093569051E-10	
     52.993362405584	     3.4879290880823E-10	
     53.022792592186	     3.5918479707794E-10	
     53.052255485419	     3.6988625217668E-10	
     53.081751139834	     3.8090687938895E-10	
     53.111279610106	     3.9225490213243E-10	
     53.140746754398	     4.0394260365989E-10	
     53.170340915943	      4.159766298694E-10	
     53.199873651559	     4.2836931133979E-10	
     53.229439212511	     4.4113258324664E-10	
     53.259037653559	     4.5427576480482E-10	
     53.288574308147	     4.6781111920075E-10	
     53.318238568659	     4.8174724444958E-10	
      53.34784094185	     4.9610066024169E-10	
     53.377476203872	     5.1088146270131E-10	
     53.407144409567	     5.2610267472772E-10	
     53.436845613897	     5.4177725633984E-10	
     53.466484516979	     5.5792009480937E-10	
     53.496251777751	     5.7454142138777E-10	
     53.525956635386	     5.9165936269736E-10	
     53.555694499774	     6.0928726188467E-10	
      53.58546542596	     6.2744037823868E-10	
      53.61526946911	     6.4613258670291E-10	
     53.645010691694	     6.6538531201608E-10	
     53.674881027834	     6.8520758575358E-10	
     53.704688440483	     7.0562312610507E-10	
     53.734528977584	     7.2664573719727E-10	
     53.764402694385	     7.4829543549138E-10	
     53.794213118725	     7.7059230314645E-10	
     53.824153253678	     7.9354942590255E-10	
     53.854029992312	     8.1719346434405E-10	
     53.883939917357	     8.4154000494665E-10	
     53.913883084139	     8.6661249445659E-10	
     53.943859548105	     8.9243167795105E-10	
     53.973869364828	     9.1901949297074E-10	
     54.003815308791	     9.4640247211713E-10	
     54.033891889846	     9.7459691065048E-10	
     54.063904493116	       1.003633925804E-9	
     54.093950455335	      1.0335354758502E-9	
     54.124029832154	      1.0643280921858E-9	
      54.15404485614	      1.0960408532555E-9	
     54.184191120654	      1.1286935226675E-9	
      54.21427292636	      1.1623228585911E-9	
     54.244388152062	      1.1969534847519E-9	
     54.274536853482	      1.2326151251914E-9	
     54.304719086469	      1.2693373601359E-9	
     54.334934906996	      1.3071483501384E-9	
     54.365085784025	      1.3461052183734E-9	
     54.395270141544	      1.3862082655704E-9	
      54.42548803535	      1.4275043260802E-9	
     54.455739521366	      1.4700400127965E-9	
     54.486024655637	      1.5138363375456E-9	
     54.516343494335	      1.5589395559138E-9	
     54.546596847207	      1.6053888830662E-9	
     54.576883796375	      1.6532120411032E-9	
      54.60720439783	      1.7024673590331E-9	
     54.637558707693	      1.7532002709969E-9	
     54.667946782205	      1.8054307811431E-9	
     54.698368677737	      1.8592165622504E-9	
     54.728724540371	       1.914609425705E-9	
       54.7591141148	      1.9716599723916E-9	
     54.789537457212	      2.0304000155693E-9	
     54.819994623921	      2.0908862794373E-9	
     54.850485671368	      2.1531877381512E-9	
     54.881010656117	      2.2173355147566E-9	
     54.911469056114	      2.2833939253615E-9	
     54.941961283087	       2.351435754094E-9	
     54.972487393417	      2.4214914182185E-9	
     55.003047443615	      2.4936285342528E-9	
     55.033641490315	      2.5679268332342E-9	
     55.064168451369	      2.6444381069501E-9	
     55.094830548812	      2.7232223197442E-9	
      55.12542544917	      2.8043531385291E-9	
     55.156054347926	      2.8879116853848E-9	
     55.186717301784	       2.973951256473E-9	
     55.217414367572	       3.062549594673E-9	
     55.248043786742	      3.1529564144204E-9	
     55.278809133956	      3.2433793282821E-9	
      55.30950672199	      3.3364028109364E-9	
     55.340238423114	       3.432092211803E-9	
     55.371004294224	      3.5305241290026E-9	
     55.401702009702	      3.6317882119718E-9	
     55.432536277976	      3.7359461225407E-9	
      55.46330227705	      3.8431005659764E-9	
     55.494102446393	      3.9533254609394E-9	
     55.525039681584	      4.0666926624456E-9	
     55.555805523846	      4.1833460652659E-9	
     55.586708546254	        4.30331431967E-9	
     55.617645967526	      4.4267346805207E-9	
     55.648514548239	      4.5536970000858E-9	
     55.679417412978	      4.6843065502855E-9	
     55.710354618891	      4.8186475666324E-9	
     55.741326223254	      4.9568523670411E-9	
     55.772332283467	      5.0990041919852E-9	
      55.80326898485	      5.2452658828425E-9	
     55.834344013767	      5.3956811647026E-9	
     55.865349567862	      5.5504439159989E-9	
     55.896389576683	       5.709627856877E-9	
     55.927464097695	      5.8733859908889E-9	
     55.958573188487	      6.0418224660465E-9	
     55.989612339689	      6.2151242158111E-9	
     56.020790626839	      6.3933604079868E-9	
     56.051898857245	      6.5767285132175E-9	
      56.08304165552	      6.7653549719663E-9	
     56.114219079314	      6.9593887148406E-9	
     56.145326036879	      7.1590047635991E-9	
     56.176572768106	      7.3643096948259E-9	
     56.207748914908	      7.5755404644398E-9	
      56.23906518493	      7.7927869735914E-9	
     56.270310752067	      8.0162877725236E-9	
     56.301591057625	      8.2461945098022E-9	
     56.332800306663	      8.4827182462448E-9	
     56.364150145238	      8.7259981825934E-9	
     56.395428807916	       8.976276423647E-9	
     56.426848411614	      9.2336865692134E-9	
     56.458196719768	      9.4985200264816E-9	
     56.489579878802	      9.7709412429464E-9	
     56.520891385909	      1.0051197162164E-8	
     56.552344302651	      1.0339456457078E-8	
     56.583725446896	      1.0636014756911E-8	
