# TLUSTY OSTAR2002+BSTAR2006
# teff = 35000 K (value for the effective temperature for the model. Temperatures are given in K)
# logg = 4 log(cm/s2) (value for Log(G) for the model.)
# z = 1  (Z/Z0)
#
#         WAVELENGTH	#                   FLUX	
#         (ANGSTROM)	#          (ERG/CM2/S/A)	
####################	########################	
     44.882873414538	      3.997042940572E-36	
     44.907816823029	      4.168050496518E-36	
     44.932787971259	     4.4093347638244E-36	
     44.957786905528	     4.6645945065396E-36	
     44.982746177196	     4.9346343517473E-36	
     45.007733177599	     5.2203017552189E-36	
     45.032747952971	     5.5225091291433E-36	
      45.05779054965	     5.8422017644357E-36	
     45.082793218463	     6.1804132898635E-36	
      45.10789152167	      6.538192000033E-36	
      45.13294983914	     6.9166926185322E-36	
     45.158036012858	     7.3171002637143E-36	
     45.183081991723	     7.7407102017542E-36	
     45.208223941659	      8.188798456473E-36	
     45.233325638345	      8.662857284127E-36	
     45.258455225762	     9.1643561374965E-36	
     45.283612750422	     9.6948911038874E-36	
     45.308798258938	     1.0256124267118E-35	
     45.333943244952	     1.0849852785271E-35	
     45.359184785076	     1.1477933884774E-35	
     45.384385743676	     1.2142402216405E-35	
     45.409614720477	     1.2845329202742E-35	
     45.434802903778	     1.3588978246518E-35	
     45.460087980675	     1.4375627100962E-35	
     45.485332204516	     1.5207835062146E-35	
     45.510604480433	      1.608822417997E-35	
     45.535904855209	     1.7019572521225E-35	
     45.561233375735	     1.8004826736239E-35	
     45.586520769912	     1.9047068352525E-35	
     45.611836249694	     2.0149726556599E-35	
     45.637179861898	     2.1316284217838E-35	
     45.662551653443	       2.25503164482E-35	
     45.687951671355	     2.3855742693386E-35	
     45.713310257544	      2.523672143398E-35	
     45.738766792027	     2.6697706010803E-35	
     45.764181834002	     2.8243256904039E-35	
      45.78955519781	     2.9878309282131E-35	
     45.815026728651	     3.1607942915941E-35	
     45.840456520044	     3.3437758153801E-35	
     45.865984728293	     3.5373301310852E-35	
     45.891471135712	     3.7421217224467E-35	
     45.916985883005	     3.9587451141547E-35	
     45.942458611669	      4.187922166071E-35	
     45.968030102304	     4.4303515203745E-35	
     45.993559512376	     4.6868333121413E-35	
     46.019117294904	     4.9581604504413E-35	
     46.044703497212	     5.2451882472887E-35	
      46.07024736872	     5.5488383450522E-35	
     46.095890474148	     5.8700489361978E-35	
     46.121491186235	     6.2098751633547E-35	
     46.147120350345	     6.5693684049164E-35	
     46.172778013935	     6.9496628168033E-35	
     46.198393032158	     7.3519982026326E-35	
     46.224107758229	     7.7775949560158E-35	
      46.24977977578	      8.227846441294E-35	
     46.275480324708	     8.7041585094099E-35	
     46.301209452603	     9.2080409060257E-35	
      46.32689561815	     9.7411142392924E-35	
     46.352681967456	     1.0305025906672E-34	
     46.378425290646	     1.0901588550842E-34	
     46.404197224346	     1.1532689656686E-34	
     46.429997816279	     1.2200307823626E-34	
     46.455755126455	     1.2906609564918E-34	
     46.481613098284	     1.3653755912128E-34	
     46.507427723964	     1.4444179684737E-34	
     46.533271039062	     1.5280371965877E-34	
     46.559143091431	       1.61649389917E-34	
     46.584971540186	     1.7100771066483E-34	
     46.610901130475	     1.8090745051073E-34	
     46.636787052132	     1.9130714038526E-34	
     46.662701741879	     2.0196022839208E-34	
     46.688645247699	      2.132131908693E-34	
     46.714617617682	     2.2509331495841E-34	
     46.740546026876	     2.3763539819554E-34	
     46.766503234583	     2.5087612578493E-34	
     46.792489288808	     2.6485611479923E-34	
     46.818504237665	     2.7961407516116E-34	
     46.844548129374	      2.951936865472E-34	
     46.870547733178	     3.1164111473621E-34	
     46.896576213546	     3.2900732758142E-34	
     46.922633618612	      3.473387929743E-34	
     46.948719996617	     3.6669372596538E-34	
     46.974835395912	     3.8712494996075E-34	
     47.000906177686	     4.0869655534105E-34	
     47.027079682944	     4.3146686480332E-34	
     47.053208503692	     4.5550926067243E-34	
     47.079366375567	     4.8088948503122E-34	
     47.105479331519	     5.0768603117515E-34	
     47.131695368778	     5.3597403450438E-34	
     47.157866422534	     5.6583804584509E-34	
     47.184066556704	     5.9736751969385E-34	
     47.210295819784	     6.3065308344888E-34	
     47.236554260378	     6.6579169616484E-34	
     47.262767416563	     7.0289051434775E-34	
     47.289009682029	     7.4205707727153E-34	
     47.315355781599	     7.8340129453071E-34	
     47.341581734975	      8.270558914783E-34	
     47.367911619808	     8.7313817448295E-34	
     47.394270808632	     9.2178817756549E-34	
     47.420584341323	      9.731509264407E-34	
     47.446927109052	     1.0273750154512E-33	
     47.473299160566	     1.0846211243549E-33	
     47.499700544723	     1.1450558649499E-33	
     47.526055967381	     1.2088589135628E-33	
     47.552516079912	     1.2762145051885E-33	
     47.578930161325	     1.3473263308124E-33	
     47.605373603601	     1.4223987669257E-33	
     47.631846455723	     1.5016539989185E-33	
     47.658273003882	      1.585329829702E-33	
      47.68472889166	      1.673673346962E-33	
      47.71129009926	     1.7669210895853E-33	
     47.737804897468	      1.865369657521E-33	
     47.764273082132	     1.9693159026422E-33	
     47.790846818354	     2.0790421535855E-33	
     47.817373870131	     2.1948874586407E-33	
       47.8440067411	     2.3171792542087E-33	
     47.870592856595	     2.4463043180987E-33	
     47.897132011203	     2.5826181519681E-33	
      47.92377721757	     2.7265065230058E-33	
     47.950452085929	     2.8784263373985E-33	
     47.977079885928	     3.0388179624734E-33	
     48.003737276208	     3.2081340950845E-33	
     48.030424306121	      3.386899323906E-33	
     48.057063988997	      3.575630954559E-33	
     48.083810360894	     3.7748590716052E-33	
     48.110509313421	     3.9851896658702E-33	
      48.13723793207	     4.2072397943624E-33	
     48.163996266313	      4.441667538476E-33	
     48.190784365732	     4.6891603640648E-33	
     48.217524728589	     4.9504508695955E-33	
     48.244372421162	     5.2262699958805E-33	
     48.271172304081	      5.517489770344E-33	
     48.298001978367	      5.824913554135E-33	
     48.324783596886	     6.1495056968047E-33	
     48.351672916415	     6.4921355740827E-33	
     48.378514106452	     6.8538926177541E-33	
     48.405385113436	     7.2358008653589E-33	
     48.432285987079	     7.6389796277532E-33	
     48.459216777203	     8.0646071818224E-33	
     48.486177533741	     8.5139684957274E-33	
     48.513089801638	      8.989236037203E-33	
     48.540031961452	     9.4761444843015E-33	
     48.567004063012	     9.9835645309278E-33	
      48.59400615626	        1.0518125682E-32	
     48.621038291247	     1.1081328174977E-32	
     48.648021575729	     1.1674703151791E-32	
     48.675113856845	     1.2299806267255E-32	
     48.702157212178	     1.2958416768658E-32	
     48.729230634195	     1.3652269692698E-32	
     48.756254879001	     1.4383334962964E-32	
     48.783388496724	     1.5153483215508E-32	
     48.810472861313	     1.5964921466039E-32	
     48.837587316895	     1.6819719950696E-32	
     48.864731913645	     1.7720396030067E-32	
      48.89190670185	     1.8669155938899E-32	
     48.919031907499	     1.9668889464196E-32	
     48.946267141012	     2.0722126923515E-32	
     48.973452715253	     2.1831643362885E-32	
     49.000668504919	     2.3000633214444E-32	
     49.027914560414	     2.4232183248255E-32	
     49.055110663128	     2.5529762481879E-32	
     49.082417312547	     2.6896734408226E-32	
     49.109673931739	     2.8337093161339E-32	
     49.136960840234	     2.9854404136232E-32	
     49.164278088547	     3.1452922659941E-32	
     49.191625727309	     3.3137039945332E-32	
     49.218923001149	     3.4911552398785E-32	
     49.246250587257	      3.678086241097E-32	
     49.273689521928	     3.8750258126255E-32	
     49.300996898465	      4.082535706831E-32	
     49.328415724939	     4.3011297712261E-32	
      49.35586506643	      4.531432089414E-32	
     49.383263627274	     4.7740823353485E-32	
      49.41069262414	     5.0297183782285E-32	
     49.438152107771	     5.2990354454921E-32	
     49.465642129023	     5.5827717158849E-32	
     49.493162738867	     5.8816926878369E-32	
      49.52063218856	     6.1966422094628E-32	
     49.548132147101	     6.5284522527229E-32	
     49.575662665346	     6.8780305663845E-32	
     49.603223794262	     7.2463112954288E-32	
     49.630815584932	     7.6343159937552E-32	
     49.658355833099	     8.0431186567478E-32	
     49.686009009337	     8.4737709382947E-32	
     49.713610562501	     8.9275175375776E-32	
     49.741242799119	     9.4055467645774E-32	
     49.768823148563	     9.9092072775585E-32	
     49.796516813807	     1.0439790261358E-31	
     49.824158510622	      1.099880342628E-31	
      49.85191380956	      1.158771496447E-31	
     49.879617058659	     1.2208192902224E-31	
     49.907268032742	      1.286191986399E-31	
     49.935032855013	     1.3550617042479E-31	
      49.96274532025	      1.427621403969E-31	
       49.9905719212	      1.504061687953E-31	
     50.018346082938	     1.5846003227325E-31	
     50.046151123813	     1.6694486112995E-31	
     50.073903457491	     1.7588440104908E-31	
     50.101770318216	     1.8530145939017E-31	
     50.129584388874	     1.9522408363726E-31	
     50.157429358728	     2.0567840381435E-31	
     50.185305279299	     2.1669101304868E-31	
     50.213212202218	     2.2829435679743E-31	
     50.241150179234	     2.4051774485808E-31	
     50.269034971226	     2.5339716295139E-31	
     50.296950733586	     2.6696533650531E-31	
     50.324897517936	        2.8126006207E-31	
     50.352875376018	     2.9632044624665E-31	
     50.380884359686	     3.1218689767714E-31	
     50.408839760426	     3.2890370769365E-31	
     50.436911056863	     3.4651466966169E-31	
     50.464928685775	     3.6506927263248E-31	
     50.492977459489	      3.846163659139E-31	
     50.520972291971	     4.0521294178007E-31	
     50.549083416516	     4.2690876177759E-31	
     50.577140514523	     4.4960712223484E-31	
     50.605314198034	     4.7270140099309E-31	
     50.633433769533	     4.9698235415313E-31	
     50.661584608495	      5.225119041678E-31	
     50.689681059539	     5.4935358641371E-31	
     50.717894494652	     5.7757102914172E-31	
      50.74605345566	     6.0724083886325E-31	
     50.774243702176	     6.3843361820102E-31	
     50.802465286368	     6.7122878745496E-31	
     50.830718260522	     7.0570831259699E-31	
     50.858916396221	     7.4196066345585E-31	
     50.887232211512	     7.8007230585496E-31	
      50.91549310127	     8.2014372137926E-31	
      50.94378539858	     8.6227307677438E-31	
     50.972109155828	     9.0656493636531E-31	
     51.000377664063	     9.5313675756127E-31	
     51.028764402201	     1.0020959045396E-30	
     51.057095803437	     1.0535723146441E-30	
     51.085458681594	     1.1076926793467E-30	
     51.113853089158	     1.1645920948962E-30	
     51.142279078733	      1.224415109267E-30	
      51.17073670304	     1.2873084732134E-30	
     51.199138575884	     1.3534372453081E-30	
     51.227571994662	     1.4229612758132E-30	
     51.256037011961	     1.4960624687109E-30	
     51.284533680485	     1.5729089893932E-30	
     51.313062053053	     1.6537025534502E-30	
     51.341534256522	     1.7386498912585E-30	
     51.370038074415	     1.8279597787554E-30	
     51.398661680974	     1.9218530454473E-30	
     51.427228983866	     2.0205831325602E-30	
     51.455739742063	      2.124376320382E-30	
     51.484370545666	     2.2334994490533E-30	
      51.51294471412	     2.3482330623636E-30	
     51.541639230398	     2.4688541002237E-30	
      51.57027702089	     2.5956704573801E-30	
      51.59885784312	     2.7290159017031E-30	
     51.627559270721	     2.8692030278027E-30	
     51.656292645944	      3.016584233393E-30	
      51.68496891583	     3.1715405195793E-30	
     51.713677041862	     3.3344585956495E-30	
     51.742417077153	     3.5057332048805E-30	
     51.771189074934	     3.6858275237813E-30	
     51.799993088553	     3.8751464128346E-30	
     51.828739568728	     4.0742191132394E-30	
      51.85751797242	     4.2835037294323E-30	
     51.886328352836	     4.5035388611425E-30	
       51.9151707633	      4.734874576178E-30	
     51.944045257258	     4.9781002610217E-30	
     51.972861786504	     5.2338206980173E-30	
     52.001800507889	     5.5026540806738E-30	
     52.030681171293	     5.7853299824116E-30	
     52.059593931901	     6.0825055137063E-30	
     52.088538843251	     6.3949499680872E-30	
        52.117515959	     6.7234429219202E-30	
      52.14643462833	     7.0688264618968E-30	
     52.175385407928	     7.4319337401563E-30	
     52.204368351307	     7.8137129048668E-30	
     52.233383512095	     8.2150800732341E-30	
     52.262430944042	     8.6370712115995E-30	
     52.291510701017	     9.0807312319289E-30	
     52.320531525746	     9.5472022944099E-30	
     52.349584580407	     1.0037626921819E-29	
     52.378669918722	     1.0553240941024E-29	
      52.40778759453	     1.1095342995578E-29	
     52.436937661792	     1.1665280471599E-29	
     52.466120174588	     1.2264476573338E-29	
     52.495243265013	     1.2894502374391E-29	
     52.524398704903	     1.3556877159594E-29	
     52.553586548187	     1.4253221941961E-29	
     52.582806848916	     1.4985409039304E-29	
      52.61205966126	     1.5755138734151E-29	
     52.641252605351	     1.6564514973273E-29	
     52.670477964107	     1.7415386067748E-29	
     52.699735791544	     1.8310050948987E-29	
     52.729026141802	     1.9250526866243E-29	
     52.758349069138	     2.0239362988583E-29	
     52.787704627932	     2.1279096622979E-29	
     52.816999820298	     2.2352750328876E-29	
      52.84632754618	     2.3449882211968E-29	
     52.875781119097	     2.4603064723213E-29	
     52.905080815514	     2.5813307142787E-29	
     52.934506467778	     2.7082841873877E-29	
     52.963964871182	      2.841477391977E-29	
     52.993362405584	     2.9812346926654E-29	
     53.022792592186	     3.1278723545158E-29	
     53.052255485419	     3.2817146845264E-29	
     53.081751139834	     3.4431112102608E-29	
     53.111279610106	     3.6124498887725E-29	
     53.140746754398	      3.790130301091E-29	
     53.170340915943	     3.9765372283229E-29	
     53.199873651559	     4.1721206493065E-29	
     53.229439212511	      4.377314211666E-29	
     53.259037653559	     4.5926027518321E-29	
     53.288574308147	     4.8184992364911E-29	
     53.318238568659	     5.0554770248692E-29	
      53.34784094185	      5.304128651372E-29	
     53.377476203872	     5.5650050689876E-29	
     53.407144409567	      5.838711326924E-29	
     53.436845613897	      6.125876031127E-29	
     53.466484516979	     6.4271873051842E-29	
     53.496251777751	     6.7432756872885E-29	
     53.525956635386	     7.0749392558515E-29	
     53.555694499774	     7.4229158568811E-29	
      53.58546542596	      7.788002063451E-29	
      53.61526946911	     8.1710300368769E-29	
     53.645010691694	     8.5729241760593E-29	
     53.674881027834	     8.9945534096228E-29	
     53.704688440483	      9.436944374467E-29	
     53.734528977584	     9.9010909407783E-29	
     53.764402694385	     1.0388051968087E-28	
     53.794213118725	     1.0899011601463E-28	
     53.824153253678	     1.1435033234978E-28	
     53.854029992312	     1.1997461458798E-28	
     53.883939917357	      1.258755469201E-28	
     53.913883084139	     1.3206591442042E-28	
     53.943859548105	     1.3856193768423E-28	
     53.973869364828	     1.4537691683535E-28	
     54.003815308791	     1.5252709316665E-28	
     54.033891889846	     1.6002830356778E-28	
     54.063904493116	     1.6789979543962E-28	
     54.093950455335	     1.7615776960169E-28	
     54.124029832154	     1.8482146976227E-28	
      54.15404485614	     1.9391203477646E-28	
     54.184191120654	      2.034484410864E-28	
      54.21427292636	     2.1345493886099E-28	
     54.244388152062	      2.239535369735E-28	
     54.274536853482	     2.3496811750397E-28	
     54.304719086469	     2.4652500570834E-28	
     54.334934906996	     2.5864912778184E-28	
     54.365085784025	     2.7137137557193E-28	
     54.395270141544	     2.8471808430953E-28	
      54.42548803535	     2.9872271371519E-28	
     54.455739521366	     3.1341475648319E-28	
     54.486024655637	     3.2882864265302E-28	
     54.516343494335	     3.4500117641351E-28	
     54.546596847207	     3.6197030707108E-28	
     54.576883796375	     3.7977383834847E-28	
      54.60720439783	     3.9845185033002E-28	
     54.637558707693	     4.1804928333977E-28	
     54.667946782205	     4.3860960733285E-28	
     54.698368677737	     4.6018112501398E-28	
     54.728724540371	     4.8281619139456E-28	
       54.7591141148	     5.0656231803917E-28	
     54.789537457212	     5.3147717073797E-28	
     54.819994623921	      5.576168927551E-28	
     54.850485671368	      5.850423731161E-28	
     54.881010656117	     6.1381546674167E-28	
     54.911469056114	     6.4400634469278E-28	
     54.941961283087	     6.7568162501421E-28	
     54.972487393417	     7.0891348491857E-28	
     55.003047443615	     7.4377999016707E-28	
     55.033641490315	     7.8036132934149E-28	
     55.064168451369	     8.1874405065229E-28	
     55.094830548812	     8.5901040193946E-28	
      55.12542544917	     9.0126046203441E-28	
     55.156054347926	     9.4558718226998E-28	
     55.186717301784	     9.9209473138017E-28	
     55.217414367572	     1.0408880267599E-27	
     55.248043786742	      1.091552204855E-27	
     55.278809133956	      1.142831418664E-27	
      55.30950672199	     1.1965541626408E-27	
     55.340238423114	     1.2528064085779E-27	
     55.371004294224	     1.3116850961347E-27	
     55.401702009702	     1.3733568325615E-27	
     55.432536277976	     1.4379124148603E-27	
      55.46330227705	     1.5054992261997E-27	
     55.494102446393	     1.5762730164015E-27	
     55.525039681584	     1.6503633099058E-27	
     55.555805523846	     1.7279478571337E-27	
     55.586708546254	     1.8091791739889E-27	
     55.617645967526	     1.8942090719808E-27	
     55.648514548239	     1.9832629131807E-27	
     55.679417412978	     2.0764902615589E-27	
     55.710354618891	     2.1740952034106E-27	
     55.741326223254	     2.2762929951312E-27	
     55.772332283467	     2.3832978858156E-27	
      55.80326898485	     2.4953324082806E-27	
     55.834344013767	     2.6126269174602E-27	
     55.865349567862	     2.7354357332496E-27	
     55.896389576683	     2.8640320099768E-27	
     55.927464097695	     2.9986607405959E-27	
     55.958573188487	     3.1396138859102E-27	
     55.989612339689	     3.2872063345541E-27	
     56.020790626839	     3.4417153044507E-27	
     56.051898857245	       3.60350173757E-27	
      56.08304165552	     3.7728995895443E-27	
     56.114219079314	     3.9502534726928E-27	
     56.145326036879	     4.1359457733695E-27	
     56.176572768106	     4.3303591672973E-27	
     56.207748914908	     4.5339245089758E-27	
      56.23906518493	     4.7470415260625E-27	
     56.270310752067	     4.9701878915081E-27	
     56.301591057625	     5.2038230789351E-27	
     56.332800306663	     5.4484536774154E-27	
     56.364150145238	     5.7045591147704E-27	
     56.395428807916	     5.9727339127952E-27	
     56.426848411614	     6.2534722785646E-27	
     56.458196719768	      6.547438601011E-27	
     56.489579878802	     6.8552141369311E-27	
     56.520891385909	     7.1774740132991E-27	
     56.552344302651	     7.5148575303626E-27	
     56.583725446896	     7.8681208861478E-27	
