# TLUSTY OSTAR2002+BSTAR2006
# teff = 37500 K (value for the effective temperature for the model. Temperatures are given in K)
# logg = 3.5 log(cm/s2) (value for Log(G) for the model.)
# z = 1  (Z/Z0)
#
#         WAVELENGTH	#                   FLUX	
#         (ANGSTROM)	#          (ERG/CM2/S/A)	
####################	########################	
     44.882873414538	     1.2950051088016E-29	
     44.907816823029	     1.3437948428565E-29	
     44.932787971259	     1.4122921813777E-29	
     44.957786905528	     1.4842786279829E-29	
     44.982746177196	     1.5599386004472E-29	
     45.007733177599	     1.6394560952344E-29	
     45.032747952971	     1.7230240372155E-29	
      45.05779054965	     1.8108511502332E-29	
     45.082793218463	     1.9031527609347E-29	
      45.10789152167	       2.00016521933E-29	
      45.13294983914	     2.1021244549465E-29	
     45.158036012858	     2.2092663689218E-29	
     45.183081991723	     2.3218938148895E-29	
     45.208223941659	     2.4402507696398E-29	
     45.233325638345	     2.5646264456493E-29	
     45.258455225762	      2.695360997899E-29	
     45.283612750422	     2.8327632257373E-29	
     45.308798258938	     2.9771404829646E-29	
     45.333943244952	     3.1288997969517E-29	
     45.359184785076	     3.2884001344827E-29	
     45.384385743676	     3.4560183088419E-29	
     45.409614720477	     3.6321736832885E-29	
     45.434802903778	     3.8173229048438E-29	
     45.460087980675	     4.0119046568344E-29	
     45.485332204516	     4.2164018106482E-29	
     45.510604480433	     4.4313325668922E-29	
     45.535904855209	     4.6572060608276E-29	
     45.561233375735	      4.894601638477E-29	
     45.586520769912	     5.1441115875251E-29	
     45.611836249694	     5.4063139294283E-29	
     45.637179861898	     5.6819065938414E-29	
     45.662551653443	     5.9715300598354E-29	
     45.687951671355	     6.2759120451108E-29	
     45.713310257544	     6.5958150120268E-29	
     45.738766792027	     6.9320106725006E-29	
     45.764181834002	     7.2853655036503E-29	
      45.78955519781	     7.6567401225781E-29	
     45.815026728651	     8.0470140822962E-29	
     45.840456520044	     8.4572100796471E-29	
     45.865984728293	     8.8882835728851E-29	
     45.891471135712	     9.3413604552473E-29	
     45.916985883005	     9.8175184913893E-29	
     45.942458611669	     1.0317959168303E-28	
     45.968030102304	     1.0843892233816E-28	
     45.993559512376	     1.1396648162198E-28	
     46.019117294904	     1.1977579615622E-28	
     46.044703497212	     1.2588099960633E-28	
      46.07024736872	     1.3229780865009E-28	
     46.095890474148	     1.3904137877459E-28	
     46.121491186235	     1.4612877372206E-28	
     46.147120350345	     1.5357751068309E-28	
     46.172778013935	     1.6140578329613E-28	
     46.198393032158	     1.6963345856396E-28	
     46.224107758229	      1.782791242165E-28	
      46.24977977578	     1.8736812541548E-28	
     46.275480324708	      1.969186469577E-28	
     46.301209452603	     2.0695545880092E-28	
      46.32689561815	     2.1750564304314E-28	
     46.352681967456	     2.2859242330557E-28	
     46.378425290646	     2.4024510346214E-28	
     46.404197224346	     2.5249080758113E-28	
     46.429997816279	     2.6536069708683E-28	
     46.455755126455	     2.7888839800066E-28	
     46.481613098284	      2.931030913227E-28	
     46.507427723964	     3.0804424199261E-28	
     46.533271039062	     3.2374502466886E-28	
     46.559143091431	      3.402480081849E-28	
     46.584971540186	     3.5759146686359E-28	
     46.610901130475	      3.758188939124E-28	
     46.636787052132	      3.948602379859E-28	
     46.662701741879	     4.1430844605208E-28	
     46.688645247699	     4.3472546613221E-28	
     46.714617617682	     4.5615111593686E-28	
     46.740546026876	     4.7863169062706E-28	
     46.766503234583	     5.0222077323343E-28	
     46.792489288808	     5.2697304479234E-28	
     46.818504237665	      5.529429306552E-28	
     46.844548129374	     5.8019318470659E-28	
     46.870547733178	     6.0878817127724E-28	
     46.896576213546	     6.3879177052181E-28	
     46.922633618612	     6.7027441610584E-28	
     46.948719996617	     7.0330792174486E-28	
     46.974835395912	     7.3796717943142E-28	
     47.000906177686	     7.7433939036089E-28	
     47.027079682944	     8.1249908643019E-28	
     47.053208503692	     8.5254206185593E-28	
     47.079366375567	     8.9455798718517E-28	
     47.105479331519	     9.3864657306065E-28	
     47.131695368778	     9.8490515859629E-28	
     47.157866422534	     1.0334458019262E-27	
     47.184066556704	     1.0843778448449E-27	
     47.210295819784	     1.1378198149464E-27	
     47.236554260378	     1.1938947506649E-27	
     47.262767416563	     1.2527358103251E-27	
     47.289009682029	     1.3144764642615E-27	
     47.315355781599	     1.3792538209013E-27	
     47.341581734975	     1.4472335080542E-27	
     47.367911619808	     1.5185559974527E-27	
     47.394270808632	     1.5933935505829E-27	
     47.420584341323	     1.6719236047188E-27	
     47.446927109052	     1.7543177595237E-27	
     47.473299160566	     1.8407800046403E-27	
     47.499700544723	     1.9315050299709E-27	
     47.526055967381	     2.0267013781176E-27	
     47.552516079912	     2.1265743464371E-27	
     47.578930161325	     2.2313872299516E-27	
     47.605373603601	      2.341349329411E-27	
     47.631846455723	     2.4567417755611E-27	
     47.658273003882	     2.5778194129381E-27	
      47.68472889166	     2.7048700556171E-27	
      47.71129009926	      2.838161994449E-27	
     47.737804897468	     2.9780384647486E-27	
     47.764273082132	     3.1248084045698E-27	
     47.790846818354	     3.2788080220548E-27	
     47.817373870131	     3.4404117422119E-27	
       47.8440067411	     3.6099504690197E-27	
     47.870592856595	     3.7878631627507E-27	
     47.897132011203	     3.9745660955396E-27	
      47.92377721757	     4.1704307051078E-27	
     47.950452085929	     4.3759617406102E-27	
     47.977079885928	      4.591631518824E-27	
     48.003737276208	     4.8179149770289E-27	
     48.030424306121	     5.0553634220369E-27	
     48.057063988997	     5.3045262819837E-27	
     48.083810360894	     5.5659329054367E-27	
     48.110509313421	     5.8402432171523E-27	
      48.13723793207	     6.1280786568069E-27	
     48.163996266313	     6.4300909262794E-27	
     48.190784365732	     6.7469773410665E-27	
     48.217524728589	     7.0795033368126E-27	
     48.244372421162	     7.4283960619696E-27	
     48.271172304081	     7.7945025898763E-27	
     48.298001978367	     8.1786453000974E-27	
     48.324783596886	      8.581725321832E-27	
     48.351672916415	     9.0046547575473E-27	
     48.378514106452	      9.448451997039E-27	
     48.405385113436	     9.9141109334201E-27	
     48.432285987079	     1.0402712592253E-26	
     48.459216777203	     1.0915381072211E-26	
     48.486177533741	     1.1453315334426E-26	
     48.513089801638	     1.2018708049869E-26	
     48.540031961452	     1.2597087168813E-26	
     48.567004063012	       1.31975579649E-26	
      48.59400615626	     1.3826632479414E-26	
     48.621038291247	     1.4485693989387E-26	
     48.648021575729	     1.5176200379505E-26	
     48.675113856845	     1.5899552939089E-26	
     48.702157212178	     1.6657517883248E-26	
     48.729230634195	     1.7451481506646E-26	
     48.756254879001	     1.8283328243009E-26	
     48.783388496724	     1.9154869266712E-26	
     48.810472861313	     2.0067828642721E-26	
     48.837587316895	     2.1024531475177E-26	
     48.864731913645	     2.2026562392664E-26	
      48.89190670185	     2.3076601679511E-26	
     48.919031907499	     2.4176608955138E-26	
     48.946267141012	     2.5328931020947E-26	
     48.973452715253	     2.6536376016101E-26	
     49.000668504919	     2.7801185586174E-26	
     49.027914560414	     2.9126296241214E-26	
     49.055110663128	     3.0514730637121E-26	
     49.082417312547	     3.1969202962908E-26	
     49.109673931739	     3.3493126054246E-26	
     49.136960840234	     3.5089749587837E-26	
     49.164278088547	      3.676225156527E-26	
     49.191625727309	     3.8514573451959E-26	
     49.218923001149	      4.035045977494E-26	
     49.246250587257	     4.2273851885048E-26	
     49.273689521928	     4.4288802299843E-26	
     49.300996898465	     4.6400081221113E-26	
     49.328415724939	     4.8611719844538E-26	
      49.35586506643	     5.0928929337748E-26	
     49.383263627274	     5.3356618409089E-26	
      49.41069262414	      5.589995610207E-26	
     49.438152107771	     5.8564554771709E-26	
     49.465642129023	     6.1356000502999E-26	
     49.493162738867	      6.428062211939E-26	
      49.52063218856	     6.7344787687907E-26	
     49.548132147101	     7.0554873240844E-26	
     49.575662665346	     7.3918039604634E-26	
     49.603223794262	     7.7441414113244E-26	
     49.630815584932	     8.1132702424885E-26	
     49.658355833099	     8.5000161215275E-26	
     49.686009009337	     8.9051636347299E-26	
     49.713610562501	     9.3296519247957E-26	
     49.741242799119	     9.7743606858185E-26	
     49.768823148563	     1.0240303561478E-25	
     49.796516813807	     1.0728404439085E-25	
     49.824158510622	     1.1239809767974E-25	
      49.85191380956	      1.177553339419E-25	
     49.879617058659	     1.2336839662076E-25	
     49.907268032742	     1.2924931715621E-25	
     49.935032855013	      1.354100806876E-25	
      49.96274532025	     1.4186478828895E-25	
       49.9905719212	     1.4862672793031E-25	
     50.018346082938	      1.557119180219E-25	
     50.046151123813	     1.6313336209307E-25	
     50.073903457491	     1.7090970151231E-25	
     50.101770318216	     1.7905660750529E-25	
     50.129584388874	     1.8759195891526E-25	
     50.157429358728	     1.9653331453809E-25	
     50.185305279299	     2.0590171075261E-25	
     50.213212202218	     2.1571659162962E-25	
     50.241150179234	     2.2599880235671E-25	
     50.269034971226	     2.3677137509922E-25	
     50.296950733586	     2.4805721536062E-25	
     50.324897517936	     2.5988132824937E-25	
     50.352875376018	     2.7226860187712E-25	
     50.380884359686	     2.8524677596894E-25	
     50.408839760426	     2.9884446536569E-25	
     50.436911056863	     3.1308866966625E-25	
     50.464928685775	     3.2801323555027E-25	
     50.492977459489	     3.4364732218465E-25	
     50.520972291971	     3.6002954528356E-25	
     50.549083416516	     3.7719034121962E-25	
     50.577140514523	     3.9506765124924E-25	
     50.605314198034	     4.1326066502073E-25	
     50.633433769533	     4.3229701689179E-25	
     50.661584608495	     4.5221062810547E-25	
     50.689681059539	     4.7304111853269E-25	
     50.717894494652	     4.9483052724155E-25	
      50.74605345566	     5.1762416145877E-25	
     50.774243702176	     5.4146810574771E-25	
     50.802465286368	      5.664098209852E-25	
     50.830718260522	     5.9249946115636E-25	
     50.858916396221	     6.1979341682594E-25	
     50.887232211512	     6.4834161308658E-25	
      50.91549310127	     6.7820650105544E-25	
      50.94378539858	     7.0944675989316E-25	
     50.972109155828	     7.4212578646731E-25	
     51.000377664063	     7.7631221802193E-25	
     51.028764402201	     8.1206947446204E-25	
     51.057095803437	     8.4947701045548E-25	
     51.085458681594	     8.8860733575829E-25	
     51.113853089158	     9.2953957454758E-25	
     51.142279078733	       9.72355360219E-25	
      51.17073670304	     1.0171445749214E-24	
     51.199138575884	     1.0639974390621E-24	
     51.227571994662	     1.1130097553641E-24	
     51.256037011961	     1.1642787462576E-24	
     51.284533680485	     1.2179083392478E-24	
     51.313062053053	     1.2740076969683E-24	
     51.341534256522	     1.3326943215082E-24	
     51.370038074415	     1.3940836183406E-24	
     51.398661680974	     1.4582953030094E-24	
     51.427228983866	     1.5254760940372E-24	
     51.455739742063	      1.595740235165E-24	
     51.484370545666	     1.6692369328941E-24	
      51.51294471412	     1.7461365817989E-24	
     51.541639230398	     1.8265575121511E-24	
      51.57027702089	     1.9106981263446E-24	
      51.59885784312	     1.9987162702559E-24	
     51.627559270721	     2.0907829983779E-24	
     51.656292645944	     2.1870885136436E-24	
      51.68496891583	     2.2878375726238E-24	
     51.713677041862	     2.3932189650268E-24	
     51.742417077153	     2.5034559029839E-24	
     51.771189074934	     2.6187705533647E-24	
     51.799993088553	     2.7393980793862E-24	
     51.828739568728	     2.8655964721929E-24	
      51.85751797242	     2.9975896562394E-24	
     51.886328352836	     3.1356794696691E-24	
       51.9151707633	     3.2801104314348E-24	
     51.944045257258	     3.4311957152976E-24	
     51.972861786504	     3.5892594739656E-24	
     52.001800507889	      3.754587642167E-24	
     52.030681171293	     3.9275284422192E-24	
     52.059593931901	     4.1084462919403E-24	
     52.088538843251	     4.2976885219727E-24	
        52.117515959	     4.4956563052083E-24	
      52.14643462833	     4.7027375857134E-24	
     52.175385407928	     4.9193703915309E-24	
     52.204368351307	     5.1459779227197E-24	
     52.233383512095	     5.3830090059768E-24	
     52.262430944042	     5.6309655295352E-24	
     52.291510701017	     5.8903332522777E-24	
     52.320531525746	      6.161672201201E-24	
     52.349584580407	     6.4455126133602E-24	
     52.378669918722	     6.7424155113306E-24	
      52.40778759453	     7.0529804305436E-24	
     52.436937661792	     7.3778588954444E-24	
     52.466120174588	     7.7176856893398E-24	
     52.495243265013	     8.0732029025953E-24	
     52.524398704903	     8.4450817102223E-24	
     52.553586548187	     8.8340976633647E-24	
     52.582806848916	     9.2410090535066E-24	
      52.61205966126	     9.6666658738085E-24	
     52.641252605351	     1.0111963236419E-23	
     52.670477964107	     1.0577765239984E-23	
     52.699735791544	     1.1065018454204E-23	
     52.729026141802	     1.1574705657771E-23	
     52.758349069138	     1.2107859153472E-23	
     52.787704627932	     1.2665560473725E-23	
     52.816999820298	     1.3240019687275E-23	
      52.84632754618	     1.3826225162312E-23	
     52.875781119097	     1.4439552537977E-23	
     52.905080815514	     1.5080128056703E-23	
     52.934506467778	      1.574904940609E-23	
     52.963964871182	     1.6447612140695E-23	
     52.993362405584	     1.7177249888947E-23	
     53.022792592186	     1.7939273827378E-23	
     53.052255485419	     1.8735044322383E-23	
     53.081751139834	      1.956604902569E-23	
     53.111279610106	     2.0434035694342E-23	
     53.140746754398	     2.1340419343001E-23	
     53.170340915943	     2.2287051317401E-23	
     53.199873651559	     2.3275677217235E-23	
     53.229439212511	     2.4308203777793E-23	
     53.259037653559	     2.5386471283125E-23	
     53.288574308147	     2.6512670914539E-23	
     53.318238568659	     2.7688705472049E-23	
      53.34784094185	      2.891697767769E-23	
     53.377476203872	     3.0199725279039E-23	
     53.407144409567	     3.1539269317991E-23	
     53.436845613897	     3.2938315687889E-23	
     53.466484516979	     3.4399548508416E-23	
     53.496251777751	     3.5925408868656E-23	
     53.525956635386	     3.7519079482697E-23	
     53.555694499774	     3.9183355925264E-23	
      53.58546542596	     4.0921536329383E-23	
      53.61526946911	     4.2736772298843E-23	
     53.645010691694	      4.463262211809E-23	
     53.674881027834	     4.6612417568772E-23	
     53.704688440483	     4.8680112848004E-23	
     53.734528977584	     5.0839550433113E-23	
     53.764402694385	     5.3094713740416E-23	
     53.794213118725	     5.5450026785305E-23	
     53.824153253678	      5.790969575561E-23	
     53.854029992312	     6.0478572129433E-23	
     53.883939917357	     6.3161399910877E-23	
     53.913883084139	     6.5963228501851E-23	
     53.943859548105	     6.8889213018001E-23	
     53.973869364828	     7.1945001560716E-23	
     54.003815308791	     7.5136615546133E-23	
     54.033891889846	     7.8469378396659E-23	
     54.063904493116	     8.1950314228632E-23	
     54.093950455335	     8.5585593053584E-23	
     54.124029832154	     8.9382011063602E-23	
      54.15404485614	      9.334718353289E-23	
     54.184191120654	     9.7487694926264E-23	
      54.21427292636	     1.0181234306561E-22	
     54.244388152062	     1.0632873349338E-22	
     54.274536853482	     1.1104541105066E-22	
     54.304719086469	     1.1597113589033E-22	
     54.334934906996	     1.2111539253894E-22	
     54.365085784025	     1.2648820712746E-22	
     54.395270141544	     1.3209932100814E-22	
      54.42548803535	     1.3795948384924E-22	
     54.455739521366	     1.4407825145727E-22	
     54.486024655637	     1.5046995648409E-22	
     54.516343494335	     1.5714379451655E-22	
     54.546596847207	      1.641158451602E-22	
     54.576883796375	     1.7139591602156E-22	
      54.60720439783	     1.7899810237012E-22	
     54.637558707693	     1.8693895724601E-22	
     54.667946782205	     1.9523117470558E-22	
     54.698368677737	     2.0389116593339E-22	
     54.728724540371	     2.1293604247951E-22	
       54.7591141148	     2.2238135388556E-22	
     54.789537457212	     2.3224705001686E-22	
     54.819994623921	     2.4254922675228E-22	
     54.850485671368	     2.5330766014521E-22	
     54.881010656117	     2.6454453484805E-22	
     54.911469056114	     2.7627919539901E-22	
     54.941961283087	     2.8853520602719E-22	
     54.972487393417	     3.0133445013382E-22	
     55.003047443615	     3.1470119839846E-22	
     55.033641490315	     3.2866085121668E-22	
     55.064168451369	     3.4324119283539E-22	
     55.094830548812	     3.5846615660772E-22	
      55.12542544917	     3.7436707927134E-22	
     55.156054347926	     3.9097380222694E-22	
     55.186717301784	     4.0831728181104E-22	
     55.217414367572	     4.2642956421351E-22	
     55.248043786742	     4.4517262778154E-22	
     55.278809133956	      4.641342171213E-22	
      55.30950672199	     4.8391411781809E-22	
     55.340238423114	      5.045386148398E-22	
     55.371004294224	     5.2604041549431E-22	
     55.401702009702	      5.484614634023E-22	
     55.432536277976	     5.7183506867194E-22	
      55.46330227705	     5.9620615490869E-22	
     55.494102446393	     6.2161573506268E-22	
     55.525039681584	     6.4810546782987E-22	
     55.555805523846	     6.7572884830846E-22	
     55.586708546254	     7.0452718737353E-22	
     55.617645967526	       7.34551170013E-22	
     55.648514548239	     7.6585777783275E-22	
     55.679417412978	     7.9849708118645E-22	
     55.710354618891	     8.3252879737191E-22	
     55.741326223254	      8.680087255449E-22	
     55.772332283467	     9.0500087869402E-22	
      55.80326898485	     9.4357248106835E-22	
     55.834344013767	     9.8378369478218E-22	
     55.865349567862	      1.025712050493E-21	
     55.896389576683	     1.0694264754103E-21	
     55.927464097695	     1.1150026811462E-21	
     55.958573188487	     1.1625208344827E-21	
     55.989612339689	     1.2120652514512E-21	
     56.020790626839	     1.2637268911469E-21	
     56.051898857245	     1.3175783986066E-21	
      56.08304165552	     1.3737274513616E-21	
     56.114219079314	     1.4322737663293E-21	
     56.145326036879	     1.4933221840452E-21	
     56.176572768106	      1.556960537332E-21	
     56.207748914908	      1.623322433808E-21	
      56.23906518493	      1.692505635874E-21	
     56.270310752067	     1.7646317568342E-21	
     56.301591057625	     1.8398390331585E-21	
     56.332800306663	     1.9182545789552E-21	
     56.364150145238	     2.0000073404432E-21	
     56.395428807916	     2.0852426080502E-21	
     56.426848411614	     2.1741104407236E-21	
     56.458196719768	     2.2667678930597E-21	
     56.489579878802	     2.3633711019293E-21	
     56.520891385909	     2.4641043609286E-21	
     56.552344302651	     2.5691118876579E-21	
     56.583725446896	     2.6786096286592E-21	
