# TLUSTY OSTAR2002+BSTAR2006
# teff = 40000 K (value for the effective temperature for the model. Temperatures are given in K)
# logg = 4.25 log(cm/s2) (value for Log(G) for the model.)
# z = 1  (Z/Z0)
#
#         WAVELENGTH	#                   FLUX	
#         (ANGSTROM)	#          (ERG/CM2/S/A)	
####################	########################	
     44.882873414538	     1.2462585845146E-27	
     44.907816823029	     1.2930046432591E-27	
     44.932787971259	     1.3586213876037E-27	
     44.957786905528	     1.4275659891576E-27	
     44.982746177196	       1.50001393115E-27	
     45.007733177599	      1.576136935903E-27	
     45.032747952971	     1.6561211235196E-27	
      45.05779054965	     1.7401647341472E-27	
     45.082793218463	     1.8284779956269E-27	
      45.10789152167	     1.9212724775702E-27	
      45.13294983914	     2.0187696405103E-27	
     45.158036012858	     2.1212193783016E-27	
     45.183081991723	     2.2288696961136E-27	
     45.208223941659	     2.3419660915893E-27	
     45.233325638345	     2.4608165861464E-27	
     45.258455225762	     2.5857073488408E-27	
     45.283612750422	     2.7169299001544E-27	
     45.308798258938	     2.8547927467124E-27	
     45.333943244952	     2.9996853457905E-27	
     45.359184785076	     3.1518953931395E-27	
     45.384385743676	     3.3118552207506E-27	
     45.409614720477	     3.4799127695554E-27	
     45.434802903778	     3.6565257077171E-27	
     45.460087980675	     3.8420804847921E-27	
     45.485332204516	     4.0370606544085E-27	
     45.510604480433	     4.2419320192602E-27	
     45.535904855209	     4.4571874071923E-27	
     45.561233375735	     4.6833899355033E-27	
     45.586520769912	     4.9210606785809E-27	
     45.611836249694	     5.1707985856866E-27	
     45.637179861898	     5.4332132951481E-27	
     45.662551653443	     5.7089296662243E-27	
     45.687951671355	     5.9986418264707E-27	
     45.713310257544	     6.3030598852176E-27	
     45.738766792027	     6.6229060671723E-27	
     45.764181834002	     6.9590120106211E-27	
      45.78955519781	     7.3121873560996E-27	
     45.815026728651	     7.6832451738246E-27	
     45.840456520044	      8.073173632782E-27	
     45.865984728293	     8.4828445485098E-27	
     45.891471135712	     8.9133316372798E-27	
     45.916985883005	     9.3656643068144E-27	
     45.942458611669	     9.8409575876136E-27	
     45.968030102304	     1.0340357295668E-26	
     45.993559512376	     1.0865106619844E-26	
     46.019117294904	     1.1416493579983E-26	
     46.044703497212	     1.1995847979543E-26	
      46.07024736872	     1.2604620891779E-26	
     46.095890474148	     1.3244266663357E-26	
     46.121491186235	     1.3916387657602E-26	
     46.147120350345	     1.4622620223561E-26	
     46.172778013935	     1.5364666976661E-26	
     46.198393032158	     1.6144431189596E-26	
     46.224107758229	      1.696367839115E-26	
      46.24977977578	     1.7824505574793E-26	
     46.275480324708	     1.8729200569772E-26	
     46.301209452603	      1.967965077414E-26	
      46.32689561815	     2.0678219882273E-26	
     46.352681967456	     2.1727598406667E-26	
     46.378425290646	     2.2830369457672E-26	
     46.404197224346	     2.3988909828722E-26	
     46.429997816279	     2.5206173033874E-26	
     46.455755126455	     2.6485530023441E-26	
     46.481613098284	     2.7829396931594E-26	
     46.507427723964	     2.9241725699803E-26	
     46.533271039062	     3.0725678520849E-26	
     46.559143091431	     3.2285005836321E-26	
     46.584971540186	     3.3923372423366E-26	
     46.610901130475	     3.5644982499317E-26	
     46.636787052132	     3.7441797673331E-26	
     46.662701741879	     3.9273831577174E-26	
     46.688645247699	     4.1196433713101E-26	
     46.714617617682	     4.3212917007032E-26	
     46.740546026876	     4.5328444364161E-26	
     46.766503234583	     4.7547542076881E-26	
     46.792489288808	     4.9875015008457E-26	
     46.818504237665	     5.2316504825088E-26	
     46.844548129374	     5.4877626865797E-26	
     46.870547733178	     5.7564150174879E-26	
     46.896576213546	     6.0382160567181E-26	
     46.922633618612	     6.3338049182106E-26	
     46.948719996617	     6.6438519085541E-26	
     46.974835395912	     6.9690924864534E-26	
     47.000906177686	     7.3102474873692E-26	
     47.027079682944	     7.6681031132175E-26	
     47.053208503692	     8.0434824348588E-26	
     47.079366375567	     8.4372200203065E-26	
     47.105479331519	     8.8502650705756E-26	
     47.131695368778	     9.2834973772079E-26	
     47.157866422534	     9.7379714996061E-26	
     47.184066556704	     1.0214669507727E-25	
     47.210295819784	     1.0714714872961E-25	
     47.236554260378	     1.1239225817316E-25	
     47.262767416563	     1.1789436819164E-25	
     47.289009682029	     1.2366573470455E-25	
     47.315355781599	     1.2971915588683E-25	
     47.341581734975	     1.3606967837111E-25	
     47.367911619808	      1.427306668617E-25	
     47.394270808632	     1.4971755876407E-25	
     47.420584341323	     1.5704681358161E-25	
     47.446927109052	     1.6473487562551E-25	
     47.473299160566	      1.727997313861E-25	
     47.499700544723	     1.8125861539328E-25	
     47.526055967381	     1.9013095191339E-25	
     47.552516079912	     1.9943912978983E-25	
     47.578930161325	     2.0920118576013E-25	
     47.605373603601	     2.1944321400258E-25	
     47.631846455723	     2.3018514571328E-25	
     47.658273003882	     2.4145422019447E-25	
      47.68472889166	     2.5327443710699E-25	
      47.71129009926	     2.6567118672892E-25	
     47.737804897468	     2.7867719085268E-25	
     47.764273082132	     2.9232020029116E-25	
     47.790846818354	     3.0662919236543E-25	
     47.817373870131	     3.2164002578619E-25	
       47.8440067411	     3.3738448567004E-25	
     47.870592856595	     3.5390159569239E-25	
     47.897132011203	     3.7122662453359E-25	
      47.92377721757	     3.8939876337664E-25	
     47.950452085929	     4.0846045347948E-25	
     47.977079885928	     4.2845582026613E-25	
     48.003737276208	     4.4943108621344E-25	
     48.030424306121	     4.7143186410821E-25	
     48.057063988997	     4.9451003180025E-25	
     48.083810360894	      5.187174421913E-25	
     48.110509313421	     5.4411041307107E-25	
      48.13723793207	     5.7074668578589E-25	
     48.163996266313	     5.9868693393803E-25	
     48.190784365732	     6.2799316934334E-25	
     48.217524728589	     6.5873733394623E-25	
     48.244372421162	       6.90983172697E-25	
     48.271172304081	     7.2480906521555E-25	
     48.298001978367	     7.6028981802311E-25	
     48.324783596886	      7.975110204932E-25	
     48.351672916415	     8.3655028790652E-25	
     48.378514106452	     8.7750319290996E-25	
     48.405385113436	     9.2046026749262E-25	
     48.432285987079	     9.6551899745496E-25	
     48.459216777203	     1.0127844337175E-24	
     48.486177533741	     1.0623611359371E-24	
     48.513089801638	      1.114449620942E-24	
     48.540031961452	     1.1675733607344E-24	
     48.567004063012	     1.2226182305657E-24	
      48.59400615626	      1.280257161135E-24	
     48.621038291247	     1.3406118667416E-24	
     48.648021575729	       1.40381600558E-24	
     48.675113856845	     1.4699939495371E-24	
     48.702157212178	     1.5392972187576E-24	
     48.729230634195	     1.6118627918482E-24	
     48.756254879001	     1.6878576305331E-24	
     48.783388496724	     1.7674269836525E-24	
     48.810472861313	     1.8507594892679E-24	
     48.837587316895	     1.9380104414534E-24	
     48.864731913645	      2.029371422059E-24	
      48.89190670185	     2.1250488763954E-24	
     48.919031907499	     2.2252398040219E-24	
     48.946267141012	     2.3301345957038E-24	
     48.973452715253	     2.4399831760324E-24	
     49.000668504919	     2.5550279444037E-24	
     49.027914560414	     2.6754703779259E-24	
     49.055110663128	     2.8016140983278E-24	
     49.082417312547	     2.9336873734528E-24	
     49.109673931739	     3.0720008872115E-24	
     49.136960840234	      3.216820432405E-24	
     49.164278088547	     3.3684820206523E-24	
     49.191625727309	     3.5272733892928E-24	
     49.218923001149	     3.6935708011756E-24	
     49.246250587257	       3.86771018417E-24	
     49.273689521928	     4.0500390914227E-24	
     49.300996898465	     4.2409876350266E-24	
     49.328415724939	     4.4409197013738E-24	
      49.35586506643	     4.6502814652276E-24	
     49.383263627274	     4.8695198009043E-24	
      49.41069262414	     5.0990952940063E-24	
     49.438152107771	     5.3394809206366E-24	
     49.465642129023	     5.5912090223868E-24	
     49.493162738867	     5.8547940699893E-24	
      49.52063218856	     6.1308144557719E-24	
     49.548132147101	     6.4198534115517E-24	
     49.575662665346	     6.7225251339921E-24	
     49.603223794262	      7.039440941247E-24	
     49.630815584932	     7.3713010424375E-24	
     49.658355833099	     7.7188279393613E-24	
     49.686009009337	     8.0827111470445E-24	
     49.713610562501	     8.4637695954096E-24	
     49.741242799119	       8.86278642123E-24	
     49.768823148563	     9.2806429831243E-24	
     49.796516813807	     9.7181560650201E-24	
     49.824158510622	      1.017632243007E-23	
      49.85191380956	     1.0656050663373E-23	
     49.879617058659	     1.1158425650923E-23	
     49.907268032742	     1.1684508779399E-23	
     49.935032855013	      1.223535099354E-23	
      49.96274532025	     1.2812199016342E-23	
       49.9905719212	     1.3416191182407E-23	
     50.018346082938	     1.4048691332458E-23	
     50.046151123813	     1.4710987429118E-23	
     50.073903457491	     1.5404590580081E-23	
     50.101770318216	     1.6130808109563E-23	
     50.129584388874	     1.6891266721696E-23	
     50.157429358728	      1.768759398976E-23	
     50.185305279299	     1.8521461096686E-23	
     50.213212202218	     1.9394680801177E-23	
     50.241150179234	     2.0308908120171E-23	
     50.269034971226	     2.1266457904742E-23	
     50.296950733586	     2.2269051963891E-23	
     50.324897517936	     2.3318914903442E-23	
     50.352875376018	     2.4418260927361E-23	
     50.380884359686	     2.5569442274697E-23	
     50.408839760426	     2.6774890193355E-23	
     50.436911056863	     2.8037055270646E-23	
     50.464928685775	     2.9358884277821E-23	
     50.492977459489	     3.0743036835778E-23	
     50.520972291971	     3.2192505802517E-23	
     50.549083416516	     3.3710097601613E-23	
     50.577140514523	     3.5288288072264E-23	
     50.605314198034	     3.6887356096454E-23	
     50.633433769533	     3.8558750268174E-23	
     50.661584608495	     4.0305771378249E-23	
     50.689681059539	     4.2131965724752E-23	
     50.717894494652	     4.4040882071692E-23	
      50.74605345566	     4.6036329152686E-23	
     50.774243702176	     4.8122249981126E-23	
     50.802465286368	     5.0302564934911E-23	
     50.830718260522	     5.2581759153599E-23	
     50.858916396221	     5.4964191943471E-23	
     50.887232211512	     5.7454524887047E-23	
      50.91549310127	     6.0057706783086E-23	
      50.94378539858	     6.2778823053044E-23	
     50.972109155828	     6.5623265886048E-23	
     51.000377664063	     6.8596635531392E-23	
     51.028764402201	     7.1704540862405E-23	
     51.057095803437	     7.4953496822199E-23	
     51.085458681594	     7.8349568297441E-23	
     51.113853089158	     8.1899600753617E-23	
     51.142279078733	     8.5610263501404E-23	
      51.17073670304	     8.9489057672315E-23	
     51.199138575884	     9.3543768679206E-23	
     51.227571994662	     9.7782111277759E-23	
     51.256037011961	     1.0221262832573E-22	
     51.284533680485	     1.0684367937185E-22	
     51.313062053053	      1.116844430589E-22	
     51.341534256522	     1.1674502643392E-22	
     51.370038074415	     1.2203472788334E-22	
     51.398661680974	     1.2756358412662E-22	
     51.427228983866	     1.3334330221295E-22	
     51.455739742063	      1.393853128177E-22	
     51.484370545666	     1.4570113493751E-22	
      51.51294471412	     1.5230158959099E-22	
     51.541639230398	     1.5920282139627E-22	
      51.57027702089	     1.6641619160387E-22	
      51.59885784312	     1.7395626286618E-22	
     51.627559270721	     1.8183769768958E-22	
     51.656292645944	     1.9007682713322E-22	
      51.68496891583	     1.9868861046204E-22	
     51.713677041862	     2.0769085802986E-22	
     51.742417077153	     2.1710192031284E-22	
     51.771189074934	     2.2693725059094E-22	
     51.799993088553	     2.3721924878887E-22	
     51.828739568728	     2.4796826275941E-22	
      51.85751797242	     2.5920431325242E-22	
     51.886328352836	     2.7094810708342E-22	
       51.9151707633	     2.8322444684682E-22	
     51.944045257258	     2.9605662280403E-22	
     51.972861786504	     3.0947167787958E-22	
     52.001800507889	     3.2349197007182E-22	
     52.030681171293	     3.3814960469436E-22	
     52.059593931901	      3.534705010247E-22	
     52.088538843251	     3.6948568960035E-22	
        52.117515959	     3.8622605535647E-22	
      52.14643462833	     4.0372651315834E-22	
     52.175385407928	     4.2201914025378E-22	
     52.204368351307	     4.4113990571476E-22	
     52.233383512095	     4.6112737135418E-22	
     52.262430944042	     4.8201991806672E-22	
     52.291510701017	     5.0385987931362E-22	
     52.320531525746	      5.266898519294E-22	
     52.349584580407	     5.5055423103051E-22	
     52.378669918722	     5.7549887638158E-22	
      52.40778759453	     6.0157354701231E-22	
     52.436937661792	     6.2882913843089E-22	
     52.466120174588	     6.5732041251156E-22	
     52.495243265013	     6.8710291303559E-22	
     52.524398704903	     7.1823553440051E-22	
     52.553586548187	      7.507777205988E-22	
     52.582806848916	     7.8479408602435E-22	
      52.61205966126	     8.2035166356239E-22	
     52.641252605351	     8.5752154186957E-22	
     52.670477964107	     8.9637689010332E-22	
     52.699735791544	     9.3699056193152E-22	
     52.729026141802	     9.7944455285597E-22	
     52.758349069138	     1.0238204737162E-21	
     52.787704627932	     1.0702076630155E-21	
     52.816999820298	       1.11784278702E-21	
      52.84632754618	     1.1662861698991E-21	
     52.875781119097	      1.216917103185E-21	
     52.905080815514	     1.2697530007619E-21	
     52.934506467778	     1.3248782439621E-21	
     52.963964871182	     1.3823966128327E-21	
     52.993362405584	     1.4424108834398E-21	
     53.022792592186	     1.5050363990258E-21	
     53.052255485419	     1.5703845887554E-21	
     53.081751139834	     1.6385529863307E-21	
     53.111279610106	     1.7096920820716E-21	
     53.140746754398	     1.7839179669213E-21	
     53.170340915943	     1.8613674914601E-21	
     53.199873651559	     1.9421755059231E-21	
     53.229439212511	     2.0264969309767E-21	
     53.259037653559	     2.1144789749566E-21	
     53.288574308147	      2.206289261174E-21	
     53.318238568659	     2.3020714746184E-21	
      53.34784094185	     2.4020131893579E-21	
     53.377476203872	     2.5063037562791E-21	
     53.407144409567	     2.6151130302331E-21	
     53.436845613897	     2.7286496405205E-21	
     53.466484516979	     2.8471182133861E-21	
     53.496251777751	     2.9707187634733E-21	
     53.525956635386	     3.0996909304024E-21	
     53.555694499774	     3.2342686979354E-21	
      53.58546542596	     3.3746819387503E-21	
      53.61526946911	     3.5211856500969E-21	
     53.645010691694	     3.6740729583908E-21	
     53.674881027834	     3.8335706530806E-21	
     53.704688440483	     4.0000092189737E-21	
     53.734528977584	     4.1736777157745E-21	
     53.764402694385	     4.3548769294266E-21	
     53.794213118725	     4.5439485692892E-21	
     53.824153253678	     4.7412236181612E-21	
     53.854029992312	     4.9470706657505E-21	
     53.883939917357	       5.16184603584E-21	
     53.913883084139	     5.3859465274381E-21	
     53.943859548105	     5.6197800197876E-21	
     53.973869364828	     5.8637524711108E-21	
     54.003815308791	     6.1183416343425E-21	
     54.033891889846	     6.3839579581273E-21	
     54.063904493116	     6.6611237827649E-21	
     54.093950455335	     6.9503178930855E-21	
     54.124029832154	     7.2520516184889E-21	
      54.15404485614	     7.5669254434224E-21	
     54.184191120654	     7.8954306843015E-21	
      54.21427292636	     8.2382168064181E-21	
     54.244388152062	     8.5958857276994E-21	
     54.274536853482	     8.9690765334571E-21	
     54.304719086469	     9.3584636216626E-21	
     54.334934906996	     9.7647437335147E-21	
     54.365085784025	     1.0188698261683E-20	
     54.395270141544	     1.0631059899718E-20	
      54.42548803535	     1.1092604356996E-20	
     54.455739521366	     1.1574192613672E-20	
     54.486024655637	     1.2076681601964E-20	
     54.516343494335	     1.2600962239439E-20	
     54.546596847207	     1.3148007068191E-20	
     54.576883796375	      1.371888249636E-20	
      54.60720439783	     1.4314491499294E-20	
     54.637558707693	     1.4936010399338E-20	
     54.667946782205	     1.5584357892024E-20	
     54.698368677737	      1.626095195324E-20	
     54.728724540371	     1.6967014334809E-20	
       54.7591141148	     1.7703642852024E-20	
     54.789537457212	     1.8472237687077E-20	
     54.819994623921	     1.9274192449463E-20	
     54.850485671368	       2.01110194041E-20	
     54.881010656117	     2.0984098625216E-20	
     54.911469056114	     2.1895133731823E-20	
     54.941961283087	     2.2845667335358E-20	
     54.972487393417	     2.3837557352923E-20	
     55.003047443615	      2.487252846693E-20	
     55.033641490315	     2.5952297216217E-20	
     55.064168451369	     2.7079044227187E-20	
     55.094830548812	      2.825464629982E-20	
      55.12542544917	     2.9481368751096E-20	
     55.156054347926	     3.0761288397726E-20	
     55.186717301784	     3.2096818669213E-20	
     55.217414367572	     3.3490238092567E-20	
     55.248043786742	     3.4928762160698E-20	
     55.278809133956	     3.6377337576671E-20	
      55.30950672199	     3.7886676277546E-20	
     55.340238423114	     3.9458530583355E-20	
     55.371004294224	     4.1095632625799E-20	
     55.401702009702	     4.2800737121169E-20	
     55.432536277976	     4.4576486369995E-20	
      55.46330227705	     4.6425897142366E-20	
     55.494102446393	     4.8352104131903E-20	
     55.525039681584	     5.0358076020674E-20	
     55.555805523846	     5.2447512738656E-20	
     55.586708546254	     5.4623467798599E-20	
     55.617645967526	     5.6889602045519E-20	
     55.648514548239	      5.924995824197E-20	
     55.679417412978	     6.1708261179693E-20	
     55.710354618891	     6.4268419689811E-20	
     55.741326223254	     6.6934930348475E-20	
     55.772332283467	     6.9711905224792E-20	
      55.80326898485	     7.2604312053208E-20	
     55.834344013767	     7.5616417726249E-20	
     55.865349567862	     7.8753669273755E-20	
     55.896389576683	     8.2021151127388E-20	
     55.927464097695	     8.5424072335157E-20	
     55.958573188487	     8.8968098519822E-20	
     55.989612339689	     9.2659454991443E-20	
     56.020790626839	      9.650355559304E-20	
     56.051898857245	     1.0050753070283E-19	
      56.08304165552	     1.0467754790134E-19	
     56.114219079314	     1.0902044902012E-19	
     56.145326036879	     1.1354382737789E-19	
     56.176572768106	     1.1825446193646E-19	
     56.207748914908	     1.2316044063454E-19	
      56.23906518493	     1.2827018693375E-19	
     56.270310752067	     1.3359250166596E-19	
     56.301591057625	     1.3913450658682E-19	
     56.332800306663	     1.4490785515336E-19	
     56.364150145238	      1.509189805426E-19	
     56.395428807916	     1.5718119819692E-19	
     56.426848411614	     1.6370194506951E-19	
     56.458196719768	     1.7049453010617E-19	
     56.489579878802	     1.7756804638589E-19	
     56.520891385909	     1.8493518802861E-19	
     56.552344302651	     1.9260770785329E-19	
     56.583725446896	     2.0059891205362E-19	
