# TLUSTY OSTAR2002+BSTAR2006
# teff = 45000 K (value for the effective temperature for the model. Temperatures are given in K)
# logg = 4 log(cm/s2) (value for Log(G) for the model.)
# z = 1  (Z/Z0)
#
#         WAVELENGTH	#                   FLUX	
#         (ANGSTROM)	#          (ERG/CM2/S/A)	
####################	########################	
     44.882873414538	     3.5461011235956E-21	
     44.907816823029	     3.6563003335947E-21	
     44.932787971259	     3.8100796297795E-21	
     44.957786905528	      3.970332051824E-21	
     44.982746177196	      4.137345433176E-21	
     45.007733177599	     4.3113639359806E-21	
     45.032747952971	     4.4927162380954E-21	
      45.05779054965	     4.6816738069543E-21	
     45.082793218463	     4.8785956335818E-21	
      45.10789152167	     5.0837956961812E-21	
      45.13294983914	     5.2976266056222E-21	
     45.158036012858	     5.5204502471846E-21	
     45.183081991723	     5.7526587460741E-21	
     45.208223941659	     5.9946280416672E-21	
     45.233325638345	     6.2467647399692E-21	
     45.258455225762	     6.5095313090916E-21	
     45.283612750422	     6.7833318220954E-21	
     45.308798258938	      7.068641838312E-21	
     45.333943244952	     7.3659569518337E-21	
     45.359184785076	     7.6757778773729E-21	
     45.384385743676	     7.9986370871606E-21	
     45.409614720477	     8.3350518121403E-21	
     45.434802903778	     8.6856583371785E-21	
     45.460087980675	     9.0509757608637E-21	
     45.485332204516	     9.4316805089684E-21	
     45.510604480433	     9.8284023926459E-21	
     45.535904855209	     1.0241794457699E-20	
     45.561233375735	     1.0672579255837E-20	
     45.586520769912	     1.1121491626742E-20	
     45.611836249694	     1.1589288868628E-20	
     45.637179861898	     1.2076755682991E-20	
     45.662551653443	     1.2584709203083E-20	
     45.687951671355	     1.3114034894157E-20	
     45.713310257544	     1.3665655721715E-20	
     45.738766792027	     1.4240421255317E-20	
     45.764181834002	     1.4839397477668E-20	
      45.78955519781	     1.5463602187372E-20	
     45.815026728651	     1.6114004225138E-20	
     45.840456520044	     1.6791810325014E-20	
     45.865984728293	     1.7498060621606E-20	
     45.891471135712	     1.8233977558458E-20	
     45.916985883005	     1.9000997363771E-20	
     45.942458611669	     1.9800250833973E-20	
     45.968030102304	     2.0633112060272E-20	
     45.993559512376	     2.1500834908013E-20	
     46.019117294904	     2.2405194858357E-20	
     46.044703497212	     2.3347664131824E-20	
      46.07024736872	     2.4329782757591E-20	
     46.095890474148	     2.5353039962322E-20	
     46.121491186235	     2.6419393715701E-20	
     46.147120350345	     2.7530743011203E-20	
     46.172778013935	     2.8688698934559E-20	
     46.198393032158	     2.9895486565492E-20	
     46.224107758229	     3.1152872153374E-20	
      46.24977977578	     3.2463157728421E-20	
     46.275480324708	     3.3828707015353E-20	
     46.301209452603	     3.5251437165522E-20	
      46.32689561815	       3.67342473728E-20	
     46.352681967456	     3.8279337347995E-20	
     46.378425290646	     3.9889525008279E-20	
     46.404197224346	     4.1567270831294E-20	
     46.429997816279	     4.3315660907784E-20	
     46.455755126455	     4.5137557593088E-20	
     46.481613098284	     4.7036094082709E-20	
     46.507427723964	     4.9014599279167E-20	
     46.533271039062	     5.1076136275842E-20	
     46.559143091431	     5.3224414268199E-20	
     46.584971540186	     5.5463297371495E-20	
     46.610901130475	     5.7796122517379E-20	
     46.636787052132	      6.021390857945E-20	
     46.662701741879	     6.2671895012342E-20	
     46.688645247699	     6.5231287245345E-20	
     46.714617617682	      6.789501322207E-20	
     46.740546026876	     7.0667759018418E-20	
     46.766503234583	     7.3553767167087E-20	
     46.792489288808	      7.655763444083E-20	
     46.818504237665	     7.9684107748644E-20	
     46.844548129374	     8.2938083211329E-20	
     46.870547733178	     8.6325218138219E-20	
     46.896576213546	     8.9850626888392E-20	
     46.922633618612	     9.3519989569658E-20	
     46.948719996617	     9.7339130372717E-20	
     46.974835395912	     1.0131418738541E-19	
     47.000906177686	     1.0545177084712E-19	
     47.027079682944	     1.0975799402657E-19	
     47.053208503692	     1.1424043209923E-19	
     47.079366375567	     1.1890562253002E-19	
     47.105479331519	     1.2376180847661E-19	
     47.131695368778	     1.2881570619492E-19	
     47.157866422534	     1.3407640050555E-19	
     47.184066556704	     1.3955192409864E-19	
     47.210295819784	     1.4525099684875E-19	
     47.236554260378	     1.5118246622701E-19	
     47.262767416563	      1.573568144822E-19	
     47.289009682029	     1.6378302013547E-19	
     47.315355781599	     1.7047195572708E-19	
     47.341581734975	     1.7743373505708E-19	
     47.367911619808	     1.8467973591365E-19	
     47.394270808632	     1.9222124723808E-19	
     47.420584341323	     2.0007127698223E-19	
     47.446927109052	       2.08241561126E-19	
     47.473299160566	      2.167460325657E-19	
     47.499700544723	     2.2559688883212E-19	
     47.526055967381	     2.3481034960501E-19	
     47.552516079912	     2.4439869303494E-19	
     47.578930161325	     2.5438044078778E-19	
     47.605373603601	     2.6476844692605E-19	
     47.631846455723	     2.7558122649708E-19	
     47.658273003882	     2.8683480220157E-19	
      47.68472889166	     2.9855000339462E-19	
      47.71129009926	     3.1074079009395E-19	
     47.737804897468	     3.2343058938369E-19	
     47.764273082132	      3.366409130482E-19	
     47.790846818354	     3.5038764916819E-19	
     47.817373870131	     3.6469748474851E-19	
       47.8440067411	     3.7958922791398E-19	
     47.870592856595	     3.9509117580728E-19	
     47.897132011203	     4.1122763906506E-19	
      47.92377721757	     4.2802008963744E-19	
     47.950452085929	      4.454986361218E-19	
     47.977079885928	     4.6369347348531E-19	
     48.003737276208	     4.8262854583276E-19	
     48.030424306121	     5.0233884325181E-19	
     48.057063988997	     5.2285434309251E-19	
     48.083810360894	     5.4420644609649E-19	
     48.110509313421	     5.6643147261297E-19	
      48.13723793207	     5.8956211754046E-19	
     48.163996266313	     6.1363908530319E-19	
     48.190784365732	     6.3869802234855E-19	
     48.217524728589	     6.6478302562617E-19	
     48.244372421162	     6.9193004870666E-19	
     48.271172304081	     7.2018664916056E-19	
     48.298001978367	     7.4959852508197E-19	
     48.324783596886	     7.8021257649001E-19	
     48.351672916415	      8.120728851379E-19	
     48.378514106452	     8.4523819957429E-19	
     48.405385113436	     8.7975615429457E-19	
     48.432285987079	     9.1568308557084E-19	
     48.459216777203	     9.5307827224297E-19	
     48.486177533741	     9.9199750830912E-19	
     48.513089801638	     1.0325636925902E-18	
     48.540031961452	     1.0738342740942E-18	
     48.567004063012	     1.1163752656159E-18	
      48.59400615626	     1.1606017853452E-18	
     48.621038291247	     1.2065796837738E-18	
     48.648021575729	     1.2543817536528E-18	
     48.675113856845	     1.3040731823123E-18	
     48.702157212178	     1.3557351073799E-18	
     48.729230634195	     1.4094438833302E-18	
     48.756254879001	     1.4652843214906E-18	
     48.783388496724	     1.5233314958547E-18	
     48.810472861313	     1.5836839035966E-18	
     48.837587316895	     1.6464172422744E-18	
     48.864731913645	     1.7116431466406E-18	
      48.89190670185	      1.779463271732E-18	
     48.919031907499	     1.8499533440632E-18	
     48.946267141012	     1.9232337804896E-18	
     48.973452715253	     1.9994328397452E-18	
     49.000668504919	     2.0786441978012E-18	
     49.027914560414	     2.1609984366352E-18	
     49.055110663128	     2.2466015644428E-18	
     49.082417312547	     2.3355999043824E-18	
     49.109673931739	     2.4281372183653E-18	
     49.136960840234	      2.524334316446E-18	
     49.164278088547	     2.6243343365633E-18	
     49.191625727309	     2.7282953065501E-18	
     49.218923001149	     2.8363838206367E-18	
     49.246250587257	     2.9487633831236E-18	
     49.273689521928	     3.0655641834901E-18	
     49.300996898465	     3.1870180451508E-18	
     49.328415724939	     3.3132798993606E-18	
      49.35586506643	      3.444528643538E-18	
     49.383263627274	     3.5810058802156E-18	
      49.41069262414	     3.7228677612053E-18	
     49.438152107771	     3.8703576079666E-18	
     49.465642129023	     4.0236868052979E-18	
     49.493162738867	      4.183081112413E-18	
      49.52063218856	     4.3488103081307E-18	
     49.548132147101	      4.521084694417E-18	
     49.575662665346	     4.7002034270169E-18	
     49.603223794262	     4.8864030118317E-18	
     49.630815584932	     5.0799800011736E-18	
     49.658355833099	     5.2812470422339E-18	
     49.686009009337	     5.4904483381919E-18	
     49.713610562501	     5.7079730197684E-18	
     49.741242799119	     5.9340944860771E-18	
     49.768823148563	      6.169198773746E-18	
     49.796516813807	     6.4135943757266E-18	
     49.824158510622	     6.6676853039607E-18	
      49.85191380956	     6.9318188785756E-18	
     49.879617058659	      7.206429289375E-18	
     49.907268032742	     7.4919367309735E-18	
     49.935032855013	     7.7887379711812E-18	
      49.96274532025	     8.0973124344659E-18	
       49.9905719212	     8.4180788673609E-18	
     50.018346082938	     8.7515768831469E-18	
     50.046151123813	     9.0982768308085E-18	
     50.073903457491	     9.4587353382061E-18	
     50.101770318216	     9.8334430385599E-18	
     50.129584388874	       1.02230144393E-17	
     50.157429358728	     1.0628025326593E-17	
     50.185305279299	     1.1049065256937E-17	
     50.213212202218	     1.1486780754346E-17	
     50.241150179234	      1.194183020737E-17	
     50.269034971226	      1.241494033329E-17	
     50.296950733586	     1.2906799351583E-17	
     50.324897517936	     1.3418115650588E-17	
     50.352875376018	     1.3949683407059E-17	
     50.380884359686	     1.4502307884325E-17	
     50.408839760426	     1.5076915360294E-17	
     50.436911056863	     1.5674129810455E-17	
     50.464928685775	     1.6295040977207E-17	
     50.492977459489	     1.6940698104403E-17	
     50.520972291971	     1.7611812535474E-17	
     50.549083416516	     1.8309506480673E-17	
     50.577140514523	     1.9030863067268E-17	
     50.605314198034	     1.9760668566449E-17	
     50.633433769533	     2.0518712104696E-17	
     50.661584608495	     2.1305712126526E-17	
     50.689681059539	     2.2122962152558E-17	
     50.717894494652	     2.2971528422942E-17	
      50.74605345566	     2.3852624610812E-17	
     50.774243702176	     2.4767524338313E-17	
     50.802465286368	     2.5717423705257E-17	
     50.830718260522	     2.6703804717868E-17	
     50.858916396221	     2.7728236466257E-17	
     50.887232211512	     2.8791711510744E-17	
      50.91549310127	     2.9896029299053E-17	
      50.94378539858	      3.104269591984E-17	
     50.972109155828	     3.2233448959479E-17	
     51.000377664063	     3.3469841989865E-17	
     51.028764402201	      3.475351850062E-17	
     51.057095803437	     3.6086568997505E-17	
     51.085458681594	     3.7470729289371E-17	
     51.113853089158	     3.8907984472082E-17	
     51.142279078733	     4.0400310226967E-17	
      51.17073670304	     4.1949816709808E-17	
     51.199138575884	     4.3558896545178E-17	
     51.227571994662	     4.5229645725882E-17	
     51.256037011961	     4.6964574271771E-17	
     51.284533680485	     4.8765893860805E-17	
     51.313062053053	     5.0636234831182E-17	
     51.341534256522	     5.2578538058998E-17	
     51.370038074415	     5.4595385177696E-17	
     51.398661680974	     5.6689317249303E-17	
     51.427228983866	     5.8863580355384E-17	
     51.455739742063	     6.1121617596019E-17	
     51.484370545666	      6.346585324443E-17	
      51.51294471412	     6.5900247733544E-17	
     51.541639230398	     6.8427730408589E-17	
      51.57027702089	      7.105240442135E-17	
      51.59885784312	      7.377792173029E-17	
     51.627559270721	     7.6607674199886E-17	
     51.656292645944	     7.9545918916932E-17	
      51.68496891583	      8.259707527397E-17	
     51.713677041862	     8.5765277309962E-17	
     51.742417077153	     8.9054902081633E-17	
     51.771189074934	     9.2470586954736E-17	
     51.799993088553	     9.6017368472183E-17	
     51.828739568728	     9.9700323544562E-17	
      51.85751797242	     1.0352454432767E-16	
     51.886328352836	     1.0749541675495E-16	
       51.9151707633	     1.1161844097799E-16	
     51.944045257258	     1.1589950987332E-16	
     51.972861786504	     1.2034532401823E-16	
     52.001800507889	      1.249609006973E-16	
     52.030681171293	     1.2975401290607E-16	
     52.059593931901	     1.3473099448308E-16	
     52.088538843251	     1.3989842563691E-16	
        52.117515959	     1.4526438084467E-16	
      52.14643462833	     1.5083617431601E-16	
     52.175385407928	     1.5662229332835E-16	
     52.204368351307	       1.62630286746E-16	
     52.233383512095	     1.6886766742465E-16	
     52.262430944042	     1.7534467081573E-16	
     52.291510701017	     1.8207010645251E-16	
     52.320531525746	     1.8905340177327E-16	
     52.349584580407	     1.9630542328014E-16	
     52.378669918722	       2.03834848565E-16	
      52.40778759453	      2.116530568329E-16	
     52.436937661792	     2.1977137349251E-16	
     52.466120174588	     2.2819970164461E-16	
     52.495243265013	     2.3695282786563E-16	
     52.524398704903	     2.4604251239567E-16	
     52.553586548187	     2.5547849682195E-16	
     52.582806848916	     2.6527865067559E-16	
      52.61205966126	     2.7545259398814E-16	
     52.641252605351	     2.8601906118258E-16	
     52.670477964107	     2.9698934080693E-16	
     52.699735791544	      3.083810191501E-16	
     52.729026141802	     3.2020888976494E-16	
     52.758349069138	     3.3249038251733E-16	
     52.787704627932	     3.4524419667376E-16	
     52.816999820298	     3.5828223469823E-16	
      52.84632754618	     3.7150383759944E-16	
     52.875781119097	      3.852330486693E-16	
     52.905080815514	     3.9947217362499E-16	
     52.934506467778	     4.1423553386279E-16	
     52.963964871182	     4.2954548465681E-16	
     52.993362405584	     4.4542181457262E-16	
     53.022792592186	     4.6188387348534E-16	
     53.052255485419	     4.7895505216878E-16	
     53.081751139834	     4.9665729365033E-16	
     53.111279610106	      5.150124363399E-16	
     53.140746754398	     5.3404810963275E-16	
     53.170340915943	     5.5378487941433E-16	
     53.199873651559	     5.7425210511885E-16	
     53.229439212511	     5.9547593563669E-16	
     53.259037653559	     6.1748428008536E-16	
     53.288574308147	     6.4030719101928E-16	
     53.318238568659	     6.6397182038492E-16	
      53.34784094185	     6.8851163415442E-16	
     53.377476203872	     7.1395966052356E-16	
     53.407144409567	     7.4034575392643E-16	
     53.436845613897	     7.6770886079849E-16	
     53.466484516979	      7.960839937926E-16	
     53.496251777751	      8.255054972949E-16	
     53.525956635386	     8.5601626260484E-16	
     53.555694499774	     8.8765432313799E-16	
      53.58546542596	     9.2046035769349E-16	
      53.61526946911	     9.5447878283021E-16	
     53.645010691694	     9.8975865525068E-16	
     53.674881027834	     1.0263370138788E-15	
     53.704688440483	     1.0642700904624E-15	
     53.734528977584	     1.1036044341246E-15	
     53.764402694385	     1.1443925045088E-15	
     53.794213118725	     1.1866920723877E-15	
     53.824153253678	     1.2305493376154E-15	
     53.854029992312	     1.2760298846188E-15	
     53.883939917357	     1.3231912868664E-15	
     53.913883084139	     1.3721002675282E-15	
     53.943859548105	     1.4228141713789E-15	
     53.973869364828	     1.4753913611667E-15	
     54.003815308791	     1.5299212660703E-15	
     54.033891889846	     1.5864636880523E-15	
     54.063904493116	     1.6451001551065E-15	
     54.093950455335	     1.7059079990472E-15	
     54.124029832154	     1.7689439506851E-15	
      54.15404485614	     1.8343353203271E-15	
     54.184191120654	     1.9021250646722E-15	
      54.21427292636	     1.9724336604875E-15	
     54.244388152062	     2.0453225510961E-15	
     54.274536853482	     2.1209234206776E-15	
     54.304719086469	     2.1993034640264E-15	
     54.334934906996	     2.2805933488723E-15	
     54.365085784025	     2.3648807205581E-15	
     54.395270141544	     2.4522872573884E-15	
      54.42548803535	     2.5429292769467E-15	
     54.455739521366	     2.6369098399165E-15	
     54.486024655637	     2.7343695813086E-15	
     54.516343494335	     2.8354231202478E-15	
     54.546596847207	     2.9402205482653E-15	
     54.576883796375	     3.0488906990361E-15	
      54.60720439783	      3.161584319793E-15	
     54.637558707693	     3.2784262038889E-15	
     54.667946782205	     3.3995909659339E-15	
     54.698368677737	     3.5252272125359E-15	
     54.728724540371	     3.6555339183871E-15	
       54.7591141148	     3.7906332336104E-15	
     54.789537457212	     3.9307343540714E-15	
     54.819994623921	      4.076007883261E-15	
     54.850485671368	     4.2266611739828E-15	
     54.881010656117	     4.3828630728916E-15	
     54.911469056114	     4.5448607321343E-15	
     54.941961283087	     4.7128307240159E-15	
     54.972487393417	     4.8870140330327E-15	
     55.003047443615	     5.0676380513152E-15	
     55.033641490315	      5.254929088124E-15	
     55.064168451369	     5.4491572384529E-15	
     55.094830548812	     5.6505445171116E-15	
      55.12542544917	     5.8593918208928E-15	
     55.156054347926	     6.0759504155582E-15	
     55.186717301784	     6.3005026625409E-15	
     55.217414367572	     6.5333666466794E-15	
     55.248043786742	     6.7725265328151E-15	
     55.278809133956	     7.0128316817397E-15	
      55.30950672199	     7.2617412334371E-15	
     55.340238423114	     7.5194832157917E-15	
     55.371004294224	     7.7863585452644E-15	
     55.401702009702	     8.0627455935438E-15	
     55.432536277976	     8.3488959699479E-15	
      55.46330227705	     8.6452280568496E-15	
     55.494102446393	     8.9520803314281E-15	
     55.525039681584	     9.2697849802883E-15	
     55.555805523846	     9.5988219953182E-15	
     55.586708546254	     9.9395001184584E-15	
     55.617645967526	      1.029226347904E-14	
     55.648514548239	     1.0657571640394E-14	
     55.679417412978	       1.10358544841E-14	
     55.710354618891	     1.1427540118276E-14	
     55.741326223254	     1.1833127347481E-14	
     55.772332283467	     1.2253064157696E-14	
      55.80326898485	     1.2688073475628E-14	
     55.834344013767	     1.3138360434844E-14	
     55.865349567862	     1.3604691930925E-14	
     55.896389576683	     1.4087567776668E-14	
     55.927464097695	     1.4587532403824E-14	
     55.958573188487	     1.5105247940573E-14	
     55.989612339689	     1.5641431795458E-14	
     56.020790626839	     1.6196505030787E-14	
     56.051898857245	     1.6771359772876E-14	
      56.08304165552	     1.7366707188185E-14	
     56.114219079314	     1.7983073934799E-14	
     56.145326036879	     1.8621412368311E-14	
     56.176572768106	     1.9282225191071E-14	
     56.207748914908	     1.9966648910934E-14	
      56.23906518493	     2.0675287891774E-14	
     56.270310752067	     2.1409042551141E-14	
     56.301591057625	     2.2168939025506E-14	
     56.332800306663	     2.2955803261672E-14	
     56.364150145238	     2.3770557662323E-14	
     56.395428807916	     2.4614346314372E-14	
     56.426848411614	     2.5487832601064E-14	
     56.458196719768	     2.6392519222041E-14	
     56.489579878802	     2.7329267476408E-14	
     56.520891385909	     2.8299251301979E-14	
     56.552344302651	     2.9303676631116E-14	
     56.583725446896	     3.0343816824625E-14	
