# TLUSTY OSTAR2002+BSTAR2006
# teff = 45000 K (value for the effective temperature for the model. Temperatures are given in K)
# logg = 3.75 log(cm/s2) (value for Log(G) for the model.)
# z = 1  (Z/Z0)
#
#         WAVELENGTH	#                   FLUX	
#         (ANGSTROM)	#          (ERG/CM2/S/A)	
####################	########################	
     44.882873414538	     5.1906838542765E-21	
     44.907816823029	     5.3522211326879E-21	
     44.932787971259	     5.5776350346539E-21	
     44.957786905528	     5.8125468885059E-21	
     44.982746177196	     6.0573701165606E-21	
     45.007733177599	     6.3125000661456E-21	
     45.032747952971	     6.5783654366168E-21	
      45.05779054965	     6.8554300157005E-21	
     45.082793218463	     7.1441768915659E-21	
      45.10789152167	     7.4450789711982E-21	
      45.13294983914	     7.7586372762629E-21	
     45.158036012858	     8.0854146348643E-21	
     45.183081991723	     8.4259811104515E-21	
     45.208223941659	     8.7808475139196E-21	
     45.233325638345	     9.1506973386724E-21	
     45.258455225762	       9.53611548141E-21	
     45.283612750422	     9.9377460968898E-21	
     45.308798258938	     1.0356303701976E-20	
     45.333943244952	     1.0792495427109E-20	
     45.359184785076	     1.1247038540933E-20	
     45.384385743676	     1.1720740730379E-20	
     45.409614720477	     1.2214398269834E-20	
     45.434802903778	     1.2728874750822E-20	
     45.460087980675	     1.3264952223955E-20	
     45.485332204516	     1.3823672406896E-20	
     45.510604480433	     1.4405900598717E-20	
     45.535904855209	       1.50126454162E-20	
     45.561233375735	     1.5644928869528E-20	
     45.586520769912	     1.6303872108024E-20	
     45.611836249694	     1.6990586824642E-20	
     45.637179861898	     1.7706188696244E-20	
     45.662551653443	     1.8451950734507E-20	
     45.687951671355	     1.9229158006256E-20	
     45.713310257544	     2.0038916263611E-20	
     45.738766792027	     2.0882973877946E-20	
     45.764181834002	     2.1762415808107E-20	
      45.78955519781	     2.2679104184876E-20	
     45.815026728651	     2.3634389764293E-20	
     45.840456520044	     2.4629714348898E-20	
     45.865984728293	     2.5667119720243E-20	
     45.891471135712	     2.6748223483231E-20	
     45.916985883005	     2.7874764571283E-20	
     45.942458611669	     2.9048816187233E-20	
     45.968030102304	     3.0272178884247E-20	
     45.993559512376	     3.1547178422361E-20	
     46.019117294904	     3.2876037616598E-20	
     46.044703497212	     3.4260524367847E-20	
      46.07024736872	     3.5703750300973E-20	
     46.095890474148	     3.7207424734768E-20	
     46.121491186235	     3.8774572590242E-20	
     46.147120350345	     4.0407518142561E-20	
     46.172778013935	     4.2109390691146E-20	
     46.198393032158	      4.388308708623E-20	
     46.224107758229	     4.5731267441411E-20	
      46.24977977578	     4.7657471750797E-20	
     46.275480324708	     4.9664637443285E-20	
     46.301209452603	     5.1756525564811E-20	
      46.32689561815	      5.393651959666E-20	
     46.352681967456	      5.620802077868E-20	
     46.378425290646	     5.8575430422891E-20	
     46.404197224346	     6.1042448884604E-20	
     46.429997816279	     6.3613449197195E-20	
     46.455755126455	     6.6292814693374E-20	
     46.481613098284	     6.9084824432789E-20	
     46.507427723964	     7.1994732128374E-20	
     46.533271039062	     7.5026969966185E-20	
     46.559143091431	     7.8186848775615E-20	
     46.584971540186	     8.1480081181878E-20	
     46.610901130475	     8.4911778588774E-20	
     46.636787052132	     8.8468640189082E-20	
     46.662701741879	     9.2084230515169E-20	
     46.688645247699	     9.5849239978687E-20	
     46.714617617682	      9.976815618573E-20	
     46.740546026876	     1.0384749328413E-19	
     46.766503234583	     1.0809363205766E-19	
     46.792489288808	     1.1251339238613E-19	
     46.818504237665	     1.1711356192165E-19	
     46.844548129374	      1.219019261971E-19	
     46.870547733178	     1.2688628781015E-19	
     46.896576213546	     1.3207451008636E-19	
     46.922633618612	     1.3747461223868E-19	
     46.948719996617	     1.4309543007798E-19	
     46.974835395912	     1.4894609913889E-19	
     47.000906177686	     1.5503636842977E-19	
     47.027079682944	     1.6137501589145E-19	
     47.053208503692	     1.6797323001093E-19	
     47.079366375567	     1.7484186314789E-19	
     47.105479331519	     1.8198937669993E-19	
     47.131695368778	      1.894304726206E-19	
     47.157866422534	     1.9717715615966E-19	
     47.184066556704	     2.0523795040713E-19	
     47.210295819784	     2.1363035780872E-19	
     47.236554260378	     2.2236504579443E-19	
     47.262767416563	     2.3145673334286E-19	
     47.289009682029	      2.409203587976E-19	
     47.315355781599	     2.5077066834834E-19	
     47.341581734975	     2.6102382022973E-19	
     47.367911619808	     2.7169619465778E-19	
     47.394270808632	     2.8280557289316E-19	
     47.420584341323	     2.9436812010475E-19	
     47.446927109052	     3.0640483708745E-19	
     47.473299160566	     3.1893246609216E-19	
     47.499700544723	     3.3197267870339E-19	
     47.526055967381	     3.4554647215762E-19	
     47.552516079912	     3.5967483992797E-19	
     47.578930161325	     3.7437972406017E-19	
     47.605373603601	     3.8968795394945E-19	
     47.631846455723	      4.056206818723E-19	
     47.658273003882	     4.2220693601342E-19	
      47.68472889166	     4.3946972713282E-19	
      47.71129009926	     4.5743669734899E-19	
     47.737804897468	     4.7613965937115E-19	
     47.764273082132	      4.956092698443E-19	
     47.790846818354	      5.158727671768E-19	
     47.817373870131	     5.3696686366653E-19	
       47.8440067411	     5.5891988339386E-19	
     47.870592856595	     5.8177343322203E-19	
     47.897132011203	     6.0556074225767E-19	
      47.92377721757	     6.3032071260385E-19	
     47.950452085929	     6.5609113949061E-19	
     47.977079885928	     6.8291652145511E-19	
     48.003737276208	     7.1084023625534E-19	
     48.030424306121	     7.3990419694177E-19	
     48.057063988997	     7.7015748037748E-19	
     48.083810360894	     8.0164652613234E-19	
     48.110509313421	      8.344241616761E-19	
      48.13723793207	     8.6854198550255E-19	
     48.163996266313	     9.0405381020577E-19	
     48.190784365732	     9.4101643808788E-19	
     48.217524728589	     9.7949441463335E-19	
     48.244372421162	     1.0195410550916E-18	
     48.271172304081	      1.061226856567E-18	
     48.298001978367	     1.1046172806829E-18	
     48.324783596886	     1.1497843227489E-18	
     48.351672916415	     1.1967951337358E-18	
     48.378514106452	     1.2457297431935E-18	
     48.405385113436	     1.2966646090233E-18	
     48.432285987079	     1.3496811237532E-18	
     48.459216777203	     1.4048651079267E-18	
     48.486177533741	     1.4623051814067E-18	
     48.513089801638	     1.5221745063926E-18	
     48.540031961452	     1.5830786657299E-18	
     48.567004063012	     1.6458555765356E-18	
      48.59400615626	     1.7111288289934E-18	
     48.621038291247	     1.7789789847404E-18	
     48.648021575729	     1.8495304248117E-18	
     48.675113856845	     1.9228733066754E-18	
     48.702157212178	      1.999137215276E-18	
     48.729230634195	     2.0784170766613E-18	
     48.756254879001	       2.16083621334E-18	
     48.783388496724	      2.246528253348E-18	
     48.810472861313	      2.335622644001E-18	
     48.837587316895	     2.4282427215531E-18	
     48.864731913645	      2.524534009989E-18	
      48.89190670185	     2.6246571057566E-18	
     48.919031907499	     2.7287492689876E-18	
     48.946267141012	     2.8369522365428E-18	
     48.973452715253	     2.9494583483315E-18	
     49.000668504919	     3.0664163724721E-18	
     49.027914560414	     3.1880302502214E-18	
     49.055110663128	     3.3144511903114E-18	
     49.082417312547	     3.4458914460861E-18	
     49.109673931739	     3.5825431165855E-18	
     49.136960840234	      3.724626940683E-18	
     49.164278088547	     3.8723266574424E-18	
     49.191625727309	     4.0258874005165E-18	
     49.218923001149	     4.1855513402962E-18	
     49.246250587257	     4.3515331817087E-18	
     49.273689521928	     4.5240909293991E-18	
     49.300996898465	     4.7035097899013E-18	
     49.328415724939	     4.8900310419126E-18	
      49.35586506643	     5.0839540997839E-18	
     49.383263627274	     5.2855641230718E-18	
      49.41069262414	      5.495188721742E-18	
     49.438152107771	     5.7131083282213E-18	
     49.465642129023	        5.9396636223E-18	
     49.493162738867	     6.1751936729735E-18	
      49.52063218856	     6.4201032375115E-18	
     49.548132147101	     6.6747085131726E-18	
     49.575662665346	     6.9394050120523E-18	
     49.603223794262	      7.214586376928E-18	
     49.630815584932	     7.5006902666131E-18	
     49.658355833099	     7.7981628286715E-18	
     49.686009009337	     8.1073870107163E-18	
     49.713610562501	     8.4289080911615E-18	
     49.741242799119	     8.7631600697033E-18	
     49.768823148563	     9.1107068914237E-18	
     49.796516813807	     9.4719900639828E-18	
     49.824158510622	     9.8476305117548E-18	
      49.85191380956	     1.0238135708655E-17	
     49.879617058659	     1.0644141452284E-17	
     49.907268032742	     1.1066293846194E-17	
     49.935032855013	     1.1505129424677E-17	
      49.96274532025	     1.1961404783481E-17	
       49.9905719212	     1.2435719868795E-17	
     50.018346082938	     1.2928876184971E-17	
     50.046151123813	     1.3441595802364E-17	
     50.073903457491	     1.3974683739504E-17	
     50.101770318216	     1.4528848267716E-17	
     50.129584388874	     1.5105040713788E-17	
     50.157429358728	     1.5704036554795E-17	
     50.185305279299	     1.6326803627007E-17	
     50.213212202218	     1.6974305201825E-17	
     50.241150179234	     1.7647350743251E-17	
     50.269034971226	     1.8347254605483E-17	
     50.296950733586	     1.9074909328368E-17	
     50.324897517936	     1.9831259788229E-17	
     50.352875376018	     2.0617692104948E-17	
     50.380884359686	     2.1435437481911E-17	
     50.408839760426	     2.2285499727594E-17	
     50.436911056863	     2.3169248705362E-17	
     50.464928685775	     2.4088051314643E-17	
     50.492977459489	     2.5043188704739E-17	
     50.520972291971	     2.6036393490103E-17	
     50.549083416516	     2.7068983386521E-17	
     50.577140514523	      2.813643488726E-17	
     50.605314198034	     2.9216962060086E-17	
     50.633433769533	     3.0338922018004E-17	
     50.661584608495	     3.1503984095489E-17	
     50.689681059539	     3.2713868248696E-17	
     50.717894494652	     3.3970105662874E-17	
      50.74605345566	     3.5274515773362E-17	
     50.774243702176	     3.6629158896896E-17	
     50.802465286368	     3.8035757870032E-17	
     50.830718260522	     3.9496464711488E-17	
     50.858916396221	     4.1013269133576E-17	
     50.887232211512	     4.2588176392641E-17	
      50.91549310127	     4.4223592676275E-17	
      50.94378539858	     4.5921926866506E-17	
     50.972109155828	     4.7685279983032E-17	
     51.000377664063	     4.9516635640223E-17	
     51.028764402201	     5.1418031289115E-17	
     51.057095803437	     5.3392601011363E-17	
     51.085458681594	     5.5443098300264E-17	
     51.113853089158	     5.7572142907407E-17	
     51.142279078733	     5.9782918205285E-17	
      51.17073670304	     6.2078592499392E-17	
     51.199138575884	     6.4462682946212E-17	
     51.227571994662	     6.6938124284344E-17	
     51.256037011961	     6.9508757250625E-17	
     51.284533680485	     7.2177974745901E-17	
     51.313062053053	     7.4949582720764E-17	
     51.341534256522	     7.7827921463205E-17	
     51.370038074415	     8.0816799580931E-17	
     51.398661680974	     8.3919965634953E-17	
     51.427228983866	     8.7142713258282E-17	
     51.455739742063	     9.0489356231581E-17	
     51.484370545666	     9.3964113616961E-17	
      51.51294471412	     9.7572708955458E-17	
     51.541639230398	     1.0131940797734E-16	
      51.57027702089	       1.05210220174E-16	
      51.59885784312	     1.0925077031311E-16	
     51.627559270721	     1.1344616110644E-16	
     51.656292645944	     1.1780242584943E-16	
      51.68496891583	      1.223263357506E-16	
     51.713677041862	     1.2702396205243E-16	
     51.742417077153	     1.3190187681006E-16	
     51.771189074934	     1.3696704253482E-16	
     51.799993088553	     1.4222652909192E-16	
     51.828739568728	     1.4768844435499E-16	
      51.85751797242	      1.533607191636E-16	
     51.886328352836	     1.5924961874972E-16	
       51.9151707633	     1.6536557145148E-16	
     51.944045257258	     1.7171476803291E-16	
     51.972861786504	     1.7830956607566E-16	
     52.001800507889	     1.8515625817973E-16	
     52.030681171293	     1.9226775029524E-16	
     52.059593931901	     1.9965084566524E-16	
     52.088538843251	     2.0731709524933E-16	
        52.117515959	     2.1527799550476E-16	
      52.14643462833	      2.235457661419E-16	
     52.175385407928	     2.3213107779569E-16	
     52.204368351307	     2.4104526741676E-16	
     52.233383512095	     2.5030099873858E-16	
     52.262430944042	     2.5991363395835E-16	
     52.291510701017	     2.6989432977141E-16	
     52.320531525746	     2.8025929595636E-16	
     52.349584580407	     2.9102141532497E-16	
     52.378669918722	     3.0219715756385E-16	
      52.40778759453	      3.138015429577E-16	
     52.436937661792	     3.2585226045703E-16	
     52.466120174588	     3.3836554677918E-16	
     52.495243265013	     3.5135879170083E-16	
     52.524398704903	     3.6485240478534E-16	
     52.553586548187	     3.7886374214767E-16	
     52.582806848916	     3.9341143951252E-16	
      52.61205966126	     4.0851948777592E-16	
     52.641252605351	     4.2420781667024E-16	
     52.670477964107	     4.4049883589968E-16	
     52.699735791544	     4.5741486645295E-16	
     52.729026141802	     4.7497947817862E-16	
     52.758349069138	     4.9322018934415E-16	
     52.787704627932	     5.1215898047553E-16	
     52.816999820298	     5.3154005425026E-16	
      52.84632754618	     5.5121036608111E-16	
     52.875781119097	     5.7163844046283E-16	
     52.905080815514	     5.9282633743024E-16	
     52.934506467778	     6.1479898362785E-16	
     52.963964871182	      6.375838530453E-16	
     52.993362405584	     6.6121666733146E-16	
     53.022792592186	     6.8572447079584E-16	
     53.052255485419	     7.1114035487025E-16	
     53.081751139834	     7.3749725381478E-16	
     53.111279610106	     7.6483061602183E-16	
     53.140746754398	     7.9317986728391E-16	
     53.170340915943	     8.2257592906098E-16	
     53.199873651559	     8.5306346671017E-16	
     53.229439212511	     8.8468108185663E-16	
     53.259037653559	     9.1746999142442E-16	
     53.288574308147	     9.5147725181695E-16	
     53.318238568659	     9.8674101645434E-16	
      53.34784094185	     1.0233140886584E-15	
     53.377476203872	     1.0612427498033E-15	
     53.407144409567	     1.1005764280608E-15	
     53.436845613897	     1.1413669548392E-15	
     53.466484516979	     1.1836727724866E-15	
     53.496251777751	      1.227542190741E-15	
     53.525956635386	     1.2730401499227E-15	
     53.555694499774	     1.3202185027728E-15	
      53.58546542596	     1.3691592963094E-15	
      53.61526946911	      1.419902255747E-15	
     53.645010691694	     1.4725249063862E-15	
     53.674881027834	     1.5271018961163E-15	
     53.704688440483	     1.5837024434297E-15	
     53.734528977584	     1.6424055784301E-15	
     53.764402694385	     1.7032821702665E-15	
     53.794213118725	     1.7664090878784E-15	
     53.824153253678	     1.8318830940213E-15	
     53.854029992312	     1.8997738562391E-15	
     53.883939917357	     1.9701963910506E-15	
     53.913883084139	     2.0432196444092E-15	
     53.943859548105	     2.1189381192506E-15	
     53.973869364828	      2.197471732048E-15	
     54.003815308791	     2.2789222097835E-15	
     54.033891889846	     2.3633923147817E-15	
     54.063904493116	      2.450978444302E-15	
     54.093950455335	      2.541828925238E-15	
     54.124029832154	     2.6360352617696E-15	
      54.15404485614	     2.7337369276592E-15	
     54.184191120654	     2.8350563554989E-15	
      54.21427292636	     2.9401420220873E-15	
     54.244388152062	     3.0491118051085E-15	
     54.274536853482	     3.1621312148095E-15	
     54.304719086469	     3.2793266563032E-15	
     54.334934906996	     3.4008622075451E-15	
     54.365085784025	     3.5269139595125E-15	
     54.395270141544	     3.6576453378426E-15	
      54.42548803535	     3.7932053817537E-15	
     54.455739521366	     3.9337932305721E-15	
     54.486024655637	     4.0795943925665E-15	
     54.516343494335	     4.2307934926879E-15	
     54.546596847207	     4.3876155636535E-15	
     54.576883796375	     4.5502412662308E-15	
      54.60720439783	     4.7188904247425E-15	
     54.637558707693	      4.893781819745E-15	
     54.667946782205	     5.0751584007989E-15	
     54.698368677737	     5.2632619645184E-15	
     54.728724540371	     5.4583405075622E-15	
       54.7591141148	     5.6606528296843E-15	
     54.789537457212	     5.8704623784393E-15	
     54.819994623921	     6.0880438830244E-15	
     54.850485671368	     6.3136832863947E-15	
     54.881010656117	     6.5476776774952E-15	
     54.911469056114	     6.7903725927889E-15	
     54.941961283087	     7.0420516859125E-15	
     54.972487393417	     7.3030576503134E-15	
     55.003047443615	      7.573731552848E-15	
     55.033641490315	     7.8544377134384E-15	
     55.064168451369	     8.1455686419692E-15	
     55.094830548812	      8.447451298604E-15	
      55.12542544917	     8.7605553749209E-15	
     55.156054347926	     9.0852577693727E-15	
     55.186717301784	     9.4219881054449E-15	
     55.217414367572	     9.7711863182931E-15	
     55.248043786742	     1.0130143277323E-14	
     55.278809133956	      1.049148971482E-14	
      55.30950672199	     1.0865882352949E-14	
     55.340238423114	     1.1253632115889E-14	
     55.371004294224	     1.1655196154973E-14	
     55.401702009702	      1.207113541862E-14	
     55.432536277976	     1.2501827129765E-14	
      55.46330227705	     1.2947947319162E-14	
     55.494102446393	     1.3410058309155E-14	
     55.525039681584	     1.3888541643757E-14	
     55.555805523846	     1.4384226662601E-14	
     55.586708546254	     1.4897508911365E-14	
     55.617645967526	     1.5428987076828E-14	
     55.648514548239	     1.5979630040481E-14	
     55.679417412978	     1.6549802006228E-14	
     55.710354618891	      1.714040587228E-14	
     55.741326223254	     1.7752097801732E-14	
     55.772332283467	     1.8385530803547E-14	
      55.80326898485	     1.9041667583001E-14	
     55.834344013767	     1.9721014840219E-14	
     55.865349567862	     2.0424842714806E-14	
     55.896389576683	     2.1153718625438E-14	
     55.927464097695	     2.1908518645395E-14	
     55.958573188487	     2.2690234971343E-14	
     55.989612339689	      2.350006303821E-14	
     56.020790626839	     2.4338572763164E-14	
     56.051898857245	     2.5207041496941E-14	
      56.08304165552	     2.6106594747771E-14	
     56.114219079314	     2.7038081137932E-14	
     56.145326036879	     2.8003047591652E-14	
     56.176572768106	     2.9002245879838E-14	
     56.207748914908	     3.0037200683628E-14	
      56.23906518493	     3.1108995414965E-14	
     56.270310752067	     3.2219158085122E-14	
     56.301591057625	     3.3368749820092E-14	
     56.332800306663	     3.4559662172207E-14	
     56.364150145238	     3.5792800555564E-14	
     56.395428807916	     3.7070176856662E-14	
     56.426848411614	     3.8392782725629E-14	
     56.458196719768	      3.976287103224E-14	
     56.489579878802	     4.1181789854726E-14	
     56.520891385909	     4.2651416255771E-14	
     56.552344302651	     4.4173378047203E-14	
     56.583725446896	     4.5749702194533E-14	
