# TLUSTY OSTAR2002+BSTAR2006
# teff = 47500 K (value for the effective temperature for the model. Temperatures are given in K)
# logg = 4.5 log(cm/s2) (value for Log(G) for the model.)
# z = 1  (Z/Z0)
#
#         WAVELENGTH	#                   FLUX	
#         (ANGSTROM)	#          (ERG/CM2/S/A)	
####################	########################	
     44.882873414538	     4.7188154046456E-19	
     44.907816823029	     4.8542944821049E-19	
     44.932787971259	      5.042979660038E-19	
     44.957786905528	     5.2389900732001E-19	
     44.982746177196	     5.4426330473831E-19	
     45.007733177599	     5.6541831507018E-19	
     45.032747952971	     5.8739658471455E-19	
      45.05779054965	     6.1022679502034E-19	
     45.082793218463	     6.3394681117927E-19	
      45.10789152167	     6.5858683224999E-19	
      45.13294983914	     6.8418637791249E-19	
     45.158036012858	     7.1078085396825E-19	
     45.183081991723	     7.3840962173575E-19	
     45.208223941659	     7.6710896290673E-19	
     45.233325638345	     7.9692755889137E-19	
     45.258455225762	     8.2790344248055E-19	
     45.283612750422	     8.6008402915503E-19	
     45.308798258938	     8.9351283999547E-19	
     45.333943244952	     9.2824516133329E-19	
     45.359184785076	     9.6432405812399E-19	
     45.384385743676	     1.0018054310728E-18	
     45.409614720477	     1.0407455487144E-18	
     45.434802903778	     1.0812010104653E-18	
     45.460087980675	     1.1232239281051E-18	
     45.485332204516	     1.1668847171127E-18	
     45.510604480433	     1.2122398980363E-18	
     45.535904855209	     1.2593598852514E-18	
     45.561233375735	     1.3083075011179E-18	
     45.586520769912	     1.3591639042365E-18	
     45.611836249694	     1.4119947050896E-18	
     45.637179861898	     1.4668780535907E-18	
     45.662551653443	     1.5238935363965E-18	
     45.687951671355	     1.5831239721818E-18	
     45.713310257544	     1.6446604077607E-18	
     45.738766792027	     1.7085840345787E-18	
     45.764181834002	     1.7749956902603E-18	
      45.78955519781	     1.8439933649036E-18	
     45.815026728651	      1.915673694776E-18	
     45.840456520044	     1.9901374285586E-18	
     45.865984728293	      2.067470403052E-18	
     45.891471135712	     2.1478360152689E-18	
     45.916985883005	     2.2313248636891E-18	
     45.942458611669	     2.3180581212524E-18	
     45.968030102304	     2.4081532119633E-18	
     45.993559512376	     2.5017553786582E-18	
     46.019117294904	     2.5990054498256E-18	
     46.044703497212	     2.7000151221925E-18	
      46.07024736872	     2.8049751730347E-18	
     46.095890474148	     2.9139968132027E-18	
     46.121491186235	     3.0272605687282E-18	
     46.147120350345	     3.1449376952248E-18	
     46.172778013935	     3.2671718792797E-18	
     46.198393032158	     3.3941695322456E-18	
     46.224107758229	     3.5260875392444E-18	
      46.24977977578	     3.6631590409726E-18	
     46.275480324708	     3.8055316230829E-18	
     46.301209452603	     3.9534504354133E-18	
      46.32689561815	     4.1071370630253E-18	
     46.352681967456	     4.2667569836868E-18	
     46.378425290646	     4.4326131468776E-18	
     46.404197224346	     4.6049161553097E-18	
     46.429997816279	     4.7838882410292E-18	
     46.455755126455	     4.9698532570531E-18	
     46.481613098284	     5.1630182596921E-18	
     46.507427723964	     5.3637030785758E-18	
     46.533271039062	     5.5721793868656E-18	
     46.559143091431	     5.7887676555335E-18	
     46.584971540186	     6.0137881707559E-18	
     46.610901130475	     6.2475217913228E-18	
     46.636787052132	     6.4894739524122E-18	
     46.662701741879	     6.7361542732313E-18	
     46.688645247699	     6.9923674591674E-18	
     46.714617617682	     7.2583392710705E-18	
     46.740546026876	     7.5344213137734E-18	
     46.766503234583	      7.821021795073E-18	
     46.792489288808	     8.1184998522222E-18	
     46.818504237665	     8.4272988391583E-18	
     46.844548129374	     8.7478428450335E-18	
     46.870547733178	     9.0805994837008E-18	
     46.896576213546	     9.4259968124757E-18	
     46.922633618612	     9.7845383837327E-18	
     46.948719996617	      1.015670827462E-17	
     46.974835395912	     1.0543022403276E-17	
     47.000906177686	     1.0944062657996E-17	
     47.027079682944	     1.1360306703558E-17	
     47.053208503692	     1.1792418019757E-17	
     47.079366375567	     1.2240953049739E-17	
     47.105479331519	     1.2706590607805E-17	
     47.131695368778	       1.31898882252E-17	
     47.157866422534	     1.3691611068959E-17	
     47.184066556704	     1.4212399787856E-17	
     47.210295819784	     1.4752982433552E-17	
     47.236554260378	     1.5314117368495E-17	
     47.262767416563	     1.5896643205667E-17	
     47.289009682029	     1.6501315282638E-17	
     47.315355781599	     1.7128978493899E-17	
     47.341581734975	     1.7780521666386E-17	
     47.367911619808	      1.845672399612E-17	
     47.394270808632	      1.915889515378E-17	
     47.420584341323	     1.9887510127264E-17	
     47.446927109052	     2.0644092209475E-17	
     47.473299160566	     2.1429212727351E-17	
     47.499700544723	     2.2244275015147E-17	
     47.526055967381	     2.3090415468961E-17	
     47.552516079912	     2.3968715205602E-17	
     47.578930161325	     2.4880376171022E-17	
     47.605373603601	     2.5826871609899E-17	
     47.631846455723	     2.6809242572401E-17	
     47.658273003882	     2.7828945284117E-17	
      47.68472889166	     2.8887425021572E-17	
      47.71129009926	     2.9986271926377E-17	
     47.737804897468	      3.112685491579E-17	
     47.764273082132	     3.2310856427607E-17	
     47.790846818354	     3.3539737982432E-17	
     47.817373870131	     3.4815530099687E-17	
       47.8440067411	     3.6139826644064E-17	
     47.870592856595	     3.7514493052554E-17	
     47.897132011203	     3.8941502458903E-17	
      47.92377721757	     4.0422561273198E-17	
     47.950452085929	     4.1960058193713E-17	
     47.977079885928	     4.3556063460076E-17	
     48.003737276208	      4.521286046007E-17	
     48.030424306121	     4.6932687118229E-17	
     48.057063988997	     4.8717926896948E-17	
     48.083810360894	     5.0570815962535E-17	
     48.110509313421	     5.2494529158166E-17	
      48.13723793207	     5.4491265739394E-17	
     48.163996266313	     5.6563857070559E-17	
     48.190784365732	     5.8715283304098E-17	
     48.217524728589	     6.0948706513893E-17	
     48.244372421162	     6.3266855923372E-17	
     48.271172304081	     6.5673392425882E-17	
     48.298001978367	     6.8171365990256E-17	
     48.324783596886	     7.0764557969849E-17	
     48.351672916415	       7.34562183981E-17	
     48.378514106452	     7.6250332018026E-17	
     48.405385113436	     7.9150656268843E-17	
     48.432285987079	     8.2161318447909E-17	
     48.459216777203	     8.5286426281642E-17	
     48.486177533741	     8.8530228202061E-17	
     48.513089801638	     9.1902051963351E-17	
     48.540031961452	     9.5335462038522E-17	
     48.567004063012	     9.8871760322098E-17	
      48.59400615626	     1.0253914181026E-16	
     48.621038291247	     1.0634240821737E-16	
     48.648021575729	     1.1028717385883E-16	
     48.675113856845	     1.1437780875914E-16	
     48.702157212178	     1.1862040911031E-16	
     48.729230634195	     1.2302043474143E-16	
     48.756254879001	     1.2758393230362E-16	
     48.783388496724	     1.3231616714686E-16	
     48.810472861313	     1.3722435305141E-16	
     48.837587316895	     1.4231441353833E-16	
     48.864731913645	     1.4759328803062E-16	
      48.89190670185	     1.5306788300094E-16	
     48.919031907499	     1.5874621979014E-16	
     48.946267141012	     1.6463317687758E-16	
     48.973452715253	     1.7074133260034E-16	
     49.000668504919	     1.7707410740502E-16	
     49.027914560414	     1.8364168883463E-16	
     49.055110663128	     1.9045483981094E-16	
     49.082417312547	     1.9751930147818E-16	
     49.109673931739	     2.0484483807262E-16	
     49.136960840234	     2.1244396167792E-16	
     49.164278088547	       2.20323511929E-16	
     49.191625727309	     2.2849652230704E-16	
     49.218923001149	      2.369720777966E-16	
     49.246250587257	     2.4576238559555E-16	
     49.273689521928	     2.5487792512848E-16	
     49.300996898465	     2.6433247323028E-16	
     49.328415724939	     2.7413782236794E-16	
      49.35586506643	      2.843059557768E-16	
     49.383263627274	     2.9485202615277E-16	
      49.41069262414	     3.0578924924047E-16	
     49.438152107771	     3.1713167585945E-16	
     49.465642129023	     3.2889482951152E-16	
     49.493162738867	     3.4109415997442E-16	
      49.52063218856	     3.5374621206317E-16	
     49.548132147101	     3.6686827685474E-16	
     49.575662665346	     3.8047711111895E-16	
     49.603223794262	     3.9458939173184E-16	
     49.630815584932	     4.0922477463616E-16	
     49.658355833099	     4.2440575621336E-16	
     49.686009009337	     4.4014751584679E-16	
     49.713610562501	      4.564738233105E-16	
     49.741242799119	     4.7340560262153E-16	
     49.768823148563	     4.9096670789538E-16	
     49.796516813807	     5.0917757770566E-16	
     49.824158510622	     5.2806506324551E-16	
      49.85191380956	     5.4765064873852E-16	
     49.879617058659	     5.6796575384417E-16	
     49.907268032742	      5.890337605335E-16	
     49.935032855013	     6.1088294997374E-16	
      49.96274532025	     6.3354326523771E-16	
       49.9905719212	     6.5704090176662E-16	
     50.018346082938	     6.8141337487005E-16	
     50.046151123813	     7.0668862253321E-16	
     50.073903457491	     7.3290350647548E-16	
     50.101770318216	     7.6008897296456E-16	
     50.129584388874	     7.8828260021498E-16	
     50.157429358728	     8.1752336154338E-16	
     50.185305279299	     8.4784799551428E-16	
     50.213212202218	     8.7929605359204E-16	
     50.241150179234	     9.1191137626765E-16	
     50.269034971226	     9.4573778588661E-16	
     50.296950733586	     9.8081876266242E-16	
     50.324897517936	     1.0172005121918E-15	
     50.352875376018	     1.0549305061205E-15	
     50.380884359686	     1.0940604426423E-15	
     50.408839760426	     1.1346441074818E-15	
     50.436911056863	     1.1767296679979E-15	
     50.464928685775	     1.2203788212407E-15	
     50.492977459489	     1.2656458545588E-15	
     50.520972291971	     1.3125959706577E-15	
     50.549083416516	     1.3612824522993E-15	
     50.577140514523	     1.4115271047118E-15	
     50.605314198034	      1.462385388781E-15	
     50.633433769533	     1.5150798951228E-15	
     50.661584608495	     1.5696728595531E-15	
     50.689681059539	     1.6262437917867E-15	
     50.717894494652	     1.6848335850246E-15	
      50.74605345566	     1.7455487796774E-15	
     50.774243702176	     1.8084495506985E-15	
     50.802465286368	     1.8736158530489E-15	
     50.830718260522	     1.9411272609625E-15	
     50.858916396221	      2.011069791924E-15	
     50.887232211512	     2.0835379598246E-15	
      50.91549310127	     2.1586240177863E-15	
      50.94378539858	     2.2363991303264E-15	
     50.972109155828	     2.3169844083392E-15	
     51.000377664063	     2.4004795927846E-15	
     51.028764402201	     2.4869742493025E-15	
     51.057095803437	     2.5765901309806E-15	
     51.085458681594	     2.6694381345337E-15	
     51.113853089158	     2.7656367590315E-15	
     51.142279078733	     2.8652895357877E-15	
      51.17073670304	     2.9685282719305E-15	
     51.199138575884	     3.0755090243068E-15	
     51.227571994662	     3.1863238527713E-15	
     51.256037011961	     3.3011457962421E-15	
     51.284533680485	     3.4200897851529E-15	
     51.313062053053	     3.5433274239435E-15	
     51.341534256522	     3.6710134956177E-15	
     51.370038074415	     3.8033064256401E-15	
     51.398661680974	     3.9403335023063E-15	
     51.427228983866	     4.0823183519577E-15	
     51.455739742063	     4.2294443973478E-15	
     51.484370545666	     4.3818357788696E-15	
      51.51294471412	     4.5397307994399E-15	
     51.541639230398	     4.7033065333925E-15	
      51.57027702089	     4.8727873467667E-15	
      51.59885784312	     5.0483950071108E-15	
     51.627559270721	     5.2303002046088E-15	
     51.656292645944	     5.4187517692935E-15	
      51.68496891583	     5.6140282233243E-15	
     51.713677041862	     5.8163273001925E-15	
     51.742417077153	     6.0259059247715E-15	
     51.771189074934	     6.2430338544469E-15	
     51.799993088553	     6.4679936027182E-15	
     51.828739568728	     6.7010754838004E-15	
      51.85751797242	     6.9425378971013E-15	
     51.886328352836	     7.1927154411632E-15	
       51.9151707633	     7.4518852192757E-15	
     51.944045257258	     7.7204067761001E-15	
     51.972861786504	     7.9986098985695E-15	
     52.001800507889	     8.2868243243769E-15	
     52.030681171293	     8.5854333120349E-15	
     52.059593931901	     8.8948038756286E-15	
     52.088538843251	     9.2153150031371E-15	
        52.117515959	     9.5473577422187E-15	
      52.14643462833	     9.8914110986578E-15	
     52.175385407928	     1.0247844147324E-14	
     52.204368351307	      1.061712518407E-14	
     52.233383512095	     1.0999692664913E-14	
     52.262430944042	     1.1396051911991E-14	
     52.291510701017	     1.1806678291147E-14	
     52.320531525746	     1.2232142636864E-14	
     52.349584580407	     1.2672917254328E-14	
     52.378669918722	     1.3129580394994E-14	
      52.40778759453	     1.3602680131029E-14	
     52.436937661792	     1.4092830419482E-14	
     52.466120174588	     1.4600642295688E-14	
     52.495243265013	     1.5126763182249E-14	
     52.524398704903	     1.5671899442552E-14	
     52.553586548187	     1.6236530364881E-14	
     52.582806848916	     1.6821677895606E-14	
      52.61205966126	       1.74278148085E-14	
     52.641252605351	     1.8055746843317E-14	
     52.670477964107	     1.8706425612258E-14	
     52.699735791544	     1.9380450054338E-14	
     52.729026141802	     2.0078822677082E-14	
     52.758349069138	     2.0802405914632E-14	
     52.787704627932	      2.155192288691E-14	
     52.816999820298	     2.2317233117338E-14	
      52.84632754618	     2.3092541166502E-14	
     52.875781119097	     2.3895915931028E-14	
     52.905080815514	     2.4727512080055E-14	
     52.934506467778	     2.5587785322295E-14	
     52.963964871182	     2.6478062251857E-14	
     52.993362405584	      2.739927372638E-14	
     53.022792592186	     2.8352561658559E-14	
     53.052255485419	     2.9339152491708E-14	
     53.081751139834	     3.0359865739124E-14	
     53.111279610106	     3.1416184654131E-14	
     53.140746754398	     3.2509300529098E-14	
     53.170340915943	     3.3640324290111E-14	
     53.199873651559	     3.4810688662274E-14	
     53.229439212511	     3.6021869803118E-14	
     53.259037653559	        3.7275185965E-14	
     53.288574308147	     3.8572218855945E-14	
     53.318238568659	     3.9914136740294E-14	
      53.34784094185	     4.1302914562332E-14	
     53.377476203872	      4.273997092898E-14	
     53.407144409567	     4.4227118276474E-14	
     53.436845613897	     4.5765764629667E-14	
     53.466484516979	     4.7358270801243E-14	
     53.496251777751	     4.9005828267221E-14	
     53.525956635386	     5.0710954666771E-14	
     53.555694499774	     5.2475382115009E-14	
      53.58546542596	     5.4301133738161E-14	
      53.61526946911	     5.6190354035345E-14	
     53.645010691694	     5.8145516255204E-14	
     53.674881027834	     6.0168465911988E-14	
     53.704688440483	     6.2262001221251E-14	
     53.734528977584	     6.4428277680327E-14	
     53.764402694385	     6.6669908217245E-14	
     53.794213118725	     6.8989740886031E-14	
     53.824153253678	     7.1389877289952E-14	
     53.854029992312	     7.3873917155948E-14	
     53.883939917357	     7.6444175308538E-14	
     53.913883084139	      7.910397945347E-14	
     53.943859548105	     8.1856123654951E-14	
     53.973869364828	     8.4704035110559E-14	
     54.003815308791	     8.7651311306593E-14	
     54.033891889846	     9.0700726851047E-14	
     54.063904493116	     9.3856561784444E-14	
     54.093950455335	     9.7122120658497E-14	
     54.124029832154	     1.0050126369456E-13	
      54.15404485614	     1.0399820839488E-13	
     54.184191120654	     1.0761642492302E-13	
      54.21427292636	     1.1136086716602E-13	
     54.244388152062	     1.1523545703577E-13	
     54.274536853482	     1.1924485528693E-13	
     54.304719086469	     1.2339357269972E-13	
     54.334934906996	     1.2768673645974E-13	
     54.365085784025	     1.3213005599738E-13	
     54.395270141544	     1.3672625407427E-13	
      54.42548803535	     1.4148369914273E-13	
     54.455739521366	     1.4640690947917E-13	
     54.486024655637	     1.5150038140578E-13	
     54.516343494335	     1.5677112449221E-13	
     54.546596847207	     1.6222670546974E-13	
     54.576883796375	     1.6787098949717E-13	
      54.60720439783	     1.7371089742374E-13	
     54.637558707693	     1.7975584109603E-13	
     54.667946782205	     1.8600888542805E-13	
     54.698368677737	     1.9248063429741E-13	
     54.728724540371	      1.991785959055E-13	
       54.7591141148	     2.0610884271046E-13	
     54.789537457212	     2.1327934794049E-13	
     54.819994623921	     2.2070055386774E-13	
     54.850485671368	     2.2837909698813E-13	
     54.881010656117	     2.3632408295779E-13	
     54.911469056114	     2.4454671916469E-13	
     54.941961283087	     2.5305518763508E-13	
     54.972487393417	     2.6186095610757E-13	
     55.003047443615	     2.7097170229739E-13	
     55.033641490315	     2.8039879793933E-13	
     55.064168451369	     2.9015586900582E-13	
     55.094830548812	     3.0024959862858E-13	
      55.12542544917	     3.1069709183127E-13	
     55.156054347926	     3.2150719592035E-13	
     55.186717301784	      3.326934868781E-13	
     55.217414367572	     3.4426824051827E-13	
     55.248043786742	     3.5613390583685E-13	
     55.278809133956	     3.6804276454641E-13	
      55.30950672199	     3.8035194009086E-13	
     55.340238423114	      3.930734847384E-13	
     55.371004294224	      4.062194706007E-13	
     55.401702009702	     4.1980714510227E-13	
     55.432536277976	     4.3384662681376E-13	
      55.46330227705	      4.483578545752E-13	
     55.494102446393	     4.6335353497583E-13	
     55.525039681584	      4.788497495232E-13	
     55.555805523846	     4.9486714865545E-13	
     55.586708546254	     5.1141688542361E-13	
     55.617645967526	     5.2852078230361E-13	
     55.648514548239	     5.4619838722651E-13	
     55.679417412978	     5.6446646128385E-13	
     55.710354618891	     5.8334600024872E-13	
     55.741326223254	     6.0285547477347E-13	
     55.772332283467	     6.2301811082652E-13	
      55.80326898485	     6.4385700108918E-13	
     55.834344013767	     6.6538923766626E-13	
     55.865349567862	     6.8764381522087E-13	
     55.896389576683	     7.1064354928768E-13	
     55.927464097695	     7.3441112310148E-13	
     55.958573188487	     7.5897271965068E-13	
     55.989612339689	      7.843585280163E-13	
     56.020790626839	     8.1058991710699E-13	
     56.051898857245	     8.3770224939277E-13	
      56.08304165552	     8.6571946575164E-13	
     56.114219079314	     8.9467428933962E-13	
     56.145326036879	     9.2459916521951E-13	
     56.176572768106	      9.555209019302E-13	
     56.207748914908	      9.874812003415E-13	
      56.23906518493	      1.020504881352E-12	
     56.270310752067	     1.0546361897874E-12	
     56.301591057625	     1.0899091530884E-12	
     56.332800306663	     1.1263655539723E-12	
     56.364150145238	     1.1640356256427E-12	
     56.395428807916	     1.2029639887626E-12	
     56.426848411614	     1.2432024191679E-12	
     56.458196719768	     1.2847838834933E-12	
     56.489579878802	     1.3277463901412E-12	
     56.520891385909	     1.3721610280092E-12	
     56.552344302651	     1.4180478922876E-12	
     56.583725446896	     1.4654829337554E-12	
