# TLUSTY OSTAR2002+BSTAR2006
# teff = 47500 K (value for the effective temperature for the model. Temperatures are given in K)
# logg = 4.75 log(cm/s2) (value for Log(G) for the model.)
# z = 1  (Z/Z0)
#
#         WAVELENGTH	#                   FLUX	
#         (ANGSTROM)	#          (ERG/CM2/S/A)	
####################	########################	
     44.882873414538	     4.7255665345726E-19	
     44.907816823029	     4.8599172891514E-19	
     44.932787971259	     5.0469914879632E-19	
     44.957786905528	     5.2412640213175E-19	
     44.982746177196	     5.4430240304364E-19	
     45.007733177599	     5.6525465642122E-19	
     45.032747952971	     5.8701204250499E-19	
      45.05779054965	     6.0960701545526E-19	
     45.082793218463	     6.3307377981779E-19	
      45.10789152167	     6.5744260051078E-19	
      45.13294983914	     6.8274935348789E-19	
     45.158036012858	     7.0902952062565E-19	
     45.183081991723	     7.3632437566916E-19	
     45.208223941659	     7.6466659234378E-19	
     45.233325638345	     7.9410123511811E-19	
     45.258455225762	     8.2467011280855E-19	
     45.283612750422	     8.5641337119287E-19	
     45.308798258938	     8.8937830497558E-19	
     45.333943244952	     9.2361477824869E-19	
     45.359184785076	     9.5916416059072E-19	
     45.384385743676	     9.9608609617735E-19	
     45.409614720477	     1.0344278352552E-18	
     45.434802903778	     1.0742479140965E-18	
     45.460087980675	     1.1155986113205E-18	
     45.485332204516	      1.158541320038E-18	
     45.510604480433	     1.2031381949695E-18	
     45.535904855209	     1.2494488873808E-18	
     45.561233375735	     1.2975436532889E-18	
     45.586520769912	     1.3474910758661E-18	
     45.611836249694	     1.3993624196987E-18	
     45.637179861898	     1.4532269638734E-18	
     45.662551653443	     1.5091663050195E-18	
     45.687951671355	     1.5672562395626E-18	
     45.713310257544	     1.6275861802466E-18	
     45.738766792027	     1.6902340437351E-18	
     45.764181834002	     1.7552954011369E-18	
      45.78955519781	     1.8228630951195E-18	
     45.815026728651	     1.8930413386687E-18	
     45.840456520044	     1.9658987246624E-18	
     45.865984728293	      2.041575313421E-18	
     45.891471135712	      2.120162971914E-18	
     45.916985883005	      2.201770655318E-18	
     45.942458611669	     2.2865197941026E-18	
     45.968030102304	      2.374546181605E-18	
     45.993559512376	     2.4659417276489E-18	
     46.019117294904	     2.5608656172137E-18	
     46.044703497212	     2.6594299579318E-18	
      46.07024736872	     2.7618080552671E-18	
     46.095890474148	     2.8681118461949E-18	
     46.121491186235	     2.9785220507993E-18	
     46.147120350345	     3.0931751431436E-18	
     46.172778013935	     3.2122330649973E-18	
     46.198393032158	     3.3359025728304E-18	
     46.224107758229	     3.4642885291884E-18	
      46.24977977578	     3.5976420155609E-18	
     46.275480324708	     3.7361290284729E-18	
     46.301209452603	     3.8799425781533E-18	
      46.32689561815	     4.0293047636747E-18	
     46.352681967456	     4.1843998174254E-18	
     46.378425290646	     4.3454783431155E-18	
     46.404197224346	     4.5127345556018E-18	
     46.429997816279	     4.6864440378921E-18	
     46.455755126455	     4.8668612470756E-18	
     46.481613098284	     5.0541774030264E-18	
     46.507427723964	     5.2487301316863E-18	
     46.533271039062	     5.4507750026148E-18	
     46.559143091431	     5.6605987613822E-18	
     46.584971540186	     5.8785050612381E-18	
     46.610901130475	     6.1047594418045E-18	
     46.636787052132	     6.3391795100391E-18	
     46.662701741879	     6.5789329899574E-18	
     46.688645247699	     6.8279584840813E-18	
     46.714617617682	     7.0864136089182E-18	
     46.740546026876	     7.3546677913731E-18	
     46.766503234583	     7.6330619276846E-18	
     46.792489288808	     7.9220080778134E-18	
     46.818504237665	     8.2218819798159E-18	
     46.844548129374	     8.5330919145131E-18	
     46.870547733178	     8.8561062089339E-18	
     46.896576213546	     9.1913549716159E-18	
     46.922633618612	     9.5392747204835E-18	
     46.948719996617	     9.9003682588641E-18	
     46.974835395912	       1.02751189354E-17	
     47.000906177686	     1.0664075341101E-17	
     47.027079682944	     1.1067718656408E-17	
     47.053208503692	     1.1486661312385E-17	
     47.079366375567	     1.1921479587917E-17	
     47.105479331519	     1.2372768260343E-17	
     47.131695368778	     1.2841089094474E-17	
     47.157866422534	     1.3327190347853E-17	
     47.184066556704	     1.3831665182276E-17	
     47.210295819784	     1.4355227141914E-17	
     47.236554260378	     1.4898620154182E-17	
     47.262767416563	     1.5462599640112E-17	
     47.289009682029	     1.6047924963405E-17	
     47.315355781599	     1.6655344316976E-17	
     47.341581734975	     1.7285829191847E-17	
     47.367911619808	     1.7940082136871E-17	
     47.394270808632	     1.8619179619698E-17	
     47.420584341323	     1.9324101316155E-17	
     47.446927109052	     2.0055537611618E-17	
     47.473299160566	     2.0814733445738E-17	
     47.499700544723	     2.1602593969634E-17	
     47.526055967381	     2.2420424650209E-17	
     47.552516079912	     2.3268981396851E-17	
     47.578930161325	     2.4149799592374E-17	
     47.605373603601	     2.5064025963725E-17	
     47.631846455723	     2.6012706490175E-17	
     47.658273003882	     2.6997465541421E-17	
      47.68472889166	     2.8019423807458E-17	
      47.71129009926	     2.9079848772004E-17	
     47.737804897468	     3.0180771509344E-17	
     47.764273082132	      3.132321789184E-17	
     47.790846818354	      3.250882707355E-17	
     47.817373870131	     3.3739464341898E-17	
       47.8440067411	       3.50165722149E-17	
     47.870592856595	       3.63420161602E-17	
     47.897132011203	     3.7717775867957E-17	
      47.92377721757	      3.914540839035E-17	
     47.950452085929	     4.0627142397229E-17	
     47.977079885928	     4.2165051780049E-17	
     48.003737276208	     4.3761268595794E-17	
     48.030424306121	     4.5417712768048E-17	
     48.057063988997	     4.7136935500512E-17	
     48.083810360894	     4.8921192005902E-17	
     48.110509313421	      5.077300482701E-17	
      48.13723793207	     5.2695077283294E-17	
     48.163996266313	      5.468960075574E-17	
     48.190784365732	     5.6759729387173E-17	
     48.217524728589	     5.8908467866289E-17	
     48.244372421162	     6.1138246281828E-17	
     48.271172304081	     6.3452563222268E-17	
     48.298001978367	     6.5854327020067E-17	
     48.324783596886	     6.8347325059807E-17	
     48.351672916415	      7.093435300423E-17	
     48.378514106452	     7.3619556008656E-17	
     48.405385113436	     7.6406392546042E-17	
     48.432285987079	     7.9298684566431E-17	
     48.459216777203	     8.2300235858753E-17	
     48.486177533741	     8.5415473071665E-17	
     48.513089801638	     8.8653090575135E-17	
     48.540031961452	     9.1954676639688E-17	
     48.567004063012	      9.535817194878E-17	
      48.59400615626	     9.8887467970645E-17	
     48.621038291247	     1.0254738478837E-16	
     48.648021575729	     1.0634306471369E-16	
     48.675113856845	     1.1027876377669E-16	
     48.702157212178	       1.14360413619E-16	
     48.729230634195	     1.1859303178568E-16	
     48.756254879001	     1.2298267240306E-16	
     48.783388496724	     1.2753433597101E-16	
     48.810472861313	     1.3225475476456E-16	
     48.837587316895	     1.3714973425403E-16	
     48.864731913645	     1.4222592374347E-16	
      48.89190670185	     1.4748994096069E-16	
     48.919031907499	     1.5294902867979E-16	
     48.946267141012	     1.5860891878868E-16	
     48.973452715253	     1.6448029348585E-16	
     49.000668504919	      1.705674102271E-16	
     49.027914560414	     1.7688048748592E-16	
     49.055110663128	     1.8342716502642E-16	
     49.082417312547	      1.902163979574E-16	
     49.109673931739	     1.9725637230864E-16	
     49.136960840234	     2.0455809874095E-16	
     49.164278088547	      2.121284579486E-16	
     49.191625727309	      2.199805244259E-16	
     49.218923001149	     2.2812183994057E-16	
     49.246250587257	     2.3656623795081E-16	
     49.273689521928	     2.4532116669145E-16	
     49.300996898465	     2.5440190975626E-16	
     49.328415724939	      2.638173032145E-16	
      49.35586506643	     2.7358090149876E-16	
     49.383263627274	     2.8370632667097E-16	
      49.41069262414	     2.9420842733406E-16	
     49.438152107771	     3.0509668081645E-16	
     49.465642129023	     3.1638821624228E-16	
     49.493162738867	     3.2809854414753E-16	
      49.52063218856	     3.4024268919401E-16	
     49.548132147101	     3.5283651475682E-16	
     49.575662665346	     3.6589531537376E-16	
     49.603223794262	      3.794373746718E-16	
     49.630815584932	     3.9348088960467E-16	
     49.658355833099	     4.0804532236735E-16	
     49.686009009337	     4.2314604416054E-16	
     49.713610562501	     4.3880832384699E-16	
     49.741242799119	      4.550486517732E-16	
     49.768823148563	     4.7189243486202E-16	
     49.796516813807	     4.8935728733022E-16	
     49.824158510622	     5.0747003104896E-16	
      49.85191380956	     5.2625086849349E-16	
     49.879617058659	     5.4572967017616E-16	
     49.907268032742	     5.6592840658431E-16	
     49.935032855013	     5.8687411328005E-16	
      49.96274532025	     6.0859669553629E-16	
       49.9905719212	     6.3112112352824E-16	
     50.018346082938	     6.5447884357471E-16	
     50.046151123813	     6.7870253291987E-16	
     50.073903457491	      7.038245771989E-16	
     50.101770318216	     7.2987325486835E-16	
     50.129584388874	     7.5688759806843E-16	
     50.157429358728	     7.8490233243022E-16	
     50.185305279299	     8.1395286311043E-16	
     50.213212202218	     8.4407890878265E-16	
     50.241150179234	      8.753185069987E-16	
     50.269034971226	     9.0771703018414E-16	
     50.296950733586	     9.4131379001327E-16	
     50.324897517936	     9.7615370026257E-16	
     50.352875376018	     1.0122829471476E-15	
     50.380884359686	     1.0497489813675E-15	
     50.408839760426	     1.0886026884685E-15	
     50.436911056863	     1.1288912878706E-15	
     50.464928685775	     1.1706749152142E-15	
     50.492977459489	     1.2140038178678E-15	
     50.520972291971	     1.2589388423146E-15	
     50.549083416516	     1.3055338929571E-15	
     50.577140514523	     1.3536312906167E-15	
     50.605314198034	     1.4023635734959E-15	
     50.633433769533	     1.4528588311597E-15	
     50.661584608495	     1.5051768146595E-15	
     50.689681059539	     1.5593706811954E-15	
     50.717894494652	     1.6155158054877E-15	
      50.74605345566	     1.6736892479574E-15	
     50.774243702176	     1.7339517460889E-15	
     50.802465286368	     1.7963835908545E-15	
     50.830718260522	     1.8610646921204E-15	
     50.858916396221	     1.9280811210493E-15	
     50.887232211512	     1.9975137308231E-15	
      50.91549310127	     2.0694255189128E-15	
      50.94378539858	     2.1439464738911E-15	
     50.972109155828	     2.2211399912551E-15	
     51.000377664063	     2.3011204350539E-15	
     51.028764402201	     2.3839784629596E-15	
     51.057095803437	     2.4698211148402E-15	
     51.085458681594	     2.5587600998296E-15	
     51.113853089158	     2.6508855516175E-15	
     51.142279078733	     2.7463303781181E-15	
      51.17073670304	     2.8452124716014E-15	
     51.199138575884	     2.9476736009114E-15	
     51.227571994662	      3.053806797657E-15	
     51.256037011961	     3.1637713262886E-15	
     51.284533680485	     3.2776827296434E-15	
     51.313062053053	     3.3956989160139E-15	
     51.341534256522	     3.5179748029896E-15	
     51.370038074415	     3.6446556831449E-15	
     51.398661680974	     3.7758843717869E-15	
     51.427228983866	     3.9118413096352E-15	
     51.455739742063	     4.0526964240869E-15	
     51.484370545666	     4.1986185275206E-15	
      51.51294471412	     4.3498027938518E-15	
     51.541639230398	     4.5064284195487E-15	
      51.57027702089	     4.6686909483475E-15	
      51.59885784312	     4.8368130031383E-15	
     51.627559270721	     5.0109676335841E-15	
     51.656292645944	     5.1913897780616E-15	
      51.68496891583	     5.3783158130052E-15	
     51.713677041862	     5.5719735131837E-15	
     51.742417077153	     5.7726067487249E-15	
     51.771189074934	     5.9804582279077E-15	
     51.799993088553	      6.195797579075E-15	
     51.828739568728	     6.4189013168008E-15	
      51.85751797242	     6.6500299895683E-15	
     51.886328352836	     6.8894774563731E-15	
       51.9151707633	     7.1375501556012E-15	
     51.944045257258	     7.3945391046046E-15	
     51.972861786504	     7.6608162755961E-15	
     52.001800507889	     7.9366454230778E-15	
     52.030681171293	     8.2224229378273E-15	
     52.059593931901	       8.51849075684E-15	
     52.088538843251	      8.825215626603E-15	
        52.117515959	     9.1429764131717E-15	
      52.14643462833	     9.4721969797104E-15	
     52.175385407928	     9.8132773438411E-15	
     52.204368351307	     1.0166632322758E-14	
     52.233383512095	     1.0532702369866E-14	
     52.262430944042	      1.091193963138E-14	
     52.291510701017	     1.1304835427488E-14	
     52.320531525746	     1.1711905856892E-14	
     52.349584580407	     1.2133627215443E-14	
     52.378669918722	     1.2570538859931E-14	
      52.40778759453	     1.3023163864677E-14	
     52.436937661792	     1.3492077606988E-14	
     52.466120174588	     1.3977797978943E-14	
     52.495243265013	     1.4481232859463E-14	
     52.524398704903	     1.5002642178485E-14	
     52.553586548187	     1.5542781627675E-14	
     52.582806848916	     1.6102403332097E-14	
      52.61205966126	     1.6682255855263E-14	
     52.641252605351	     1.7283008950225E-14	
     52.670477964107	     1.7905348272081E-14	
     52.699735791544	     1.8550012426286E-14	
     52.729026141802	     1.9218007482209E-14	
     52.758349069138	     1.9909928738102E-14	
     52.787704627932	     2.0626774163381E-14	
     52.816999820298	     2.1359078684413E-14	
      52.84632754618	     2.2101321082667E-14	
     52.875781119097	     2.2870496283824E-14	
     52.905080815514	     2.3666482889585E-14	
     52.934506467778	     2.4490021226642E-14	
     52.963964871182	     2.5342303942757E-14	
     52.993362405584	     2.6224396303208E-14	
     53.022792592186	     2.7137046044082E-14	
     53.052255485419	     2.8081484890646E-14	
     53.081751139834	     2.9058805037546E-14	
     53.111279610106	     3.0070093454256E-14	
     53.140746754398	     3.1116675611794E-14	
     53.170340915943	     3.2199544138219E-14	
     53.199873651559	     3.3320127396591E-14	
     53.229439212511	     3.4479779193096E-14	
     53.259037653559	     3.5679823890256E-14	
     53.288574308147	     3.6921578098561E-14	
     53.318238568659	     3.8206493631891E-14	
      53.34784094185	     3.9536274824145E-14	
     53.377476203872	     4.0912220869732E-14	
     53.407144409567	     4.2336019503923E-14	
     53.436845613897	     4.3809350424319E-14	
     53.466484516979	     4.5334178789532E-14	
     53.496251777751	     4.6911850132114E-14	
     53.525956635386	     4.8544480687137E-14	
     53.555694499774	      5.023395020007E-14	
      53.58546542596	     5.1982290413103E-14	
      53.61526946911	     5.3791392321596E-14	
     53.645010691694	     5.5663467943881E-14	
     53.674881027834	      5.760065210912E-14	
     53.704688440483	      5.960534252761E-14	
     53.734528977584	     6.1679714293354E-14	
     53.764402694385	     6.3826391036194E-14	
     53.794213118725	     6.6047830389818E-14	
     53.824153253678	     6.8346296722229E-14	
     53.854029992312	     7.0724990095974E-14	
     53.883939917357	     7.3186508177133E-14	
     53.913883084139	     7.5733542537268E-14	
     53.943859548105	     7.8369289679122E-14	
     53.973869364828	     8.1096672260525E-14	
     54.003815308791	     8.3919159595616E-14	
     54.033891889846	      8.683956757611E-14	
     54.063904493116	     8.9861777027096E-14	
     54.093950455335	     9.2989250763898E-14	
     54.124029832154	     9.6225478824051E-14	
      54.15404485614	     9.9574551162027E-14	
     54.184191120654	     1.0303985832944E-13	
      54.21427292636	     1.0662595483793E-13	
     54.244388152062	     1.1033692552998E-13	
     54.274536853482	     1.1417681017603E-13	
     54.304719086469	     1.1815039563236E-13	
     54.334934906996	     1.2226219075663E-13	
     54.365085784025	     1.2651739657645E-13	
     54.395270141544	     1.3092030614319E-13	
      54.42548803535	     1.3547688974859E-13	
     54.455739521366	     1.4019207312177E-13	
     54.486024655637	     1.4507037761486E-13	
     54.516343494335	     1.5012010538429E-13	
     54.546596847207	     1.5534375415785E-13	
     54.576883796375	     1.6075030907654E-13	
      54.60720439783	     1.6634544823916E-13	
     54.637558707693	     1.7213482239791E-13	
     54.667946782205	     1.7812531556178E-13	
     54.698368677737	     1.8432377886396E-13	
     54.728724540371	     1.9073898477809E-13	
       54.7591141148	     1.9737832385965E-13	
     54.789537457212	     2.0424728813874E-13	
     54.819994623921	     2.1135510339127E-13	
     54.850485671368	     2.1871095171308E-13	
     54.881010656117	     2.2632272078624E-13	
     54.911469056114	     2.3419911824443E-13	
     54.941961283087	     2.4234965463119E-13	
     54.972487393417	     2.5078459195828E-13	
     55.003047443615	     2.5951289821042E-13	
     55.033641490315	     2.6854349820257E-13	
     55.064168451369	     2.7789002191756E-13	
     55.094830548812	     2.8756053113804E-13	
      55.12542544917	     2.9756960444852E-13	
     55.156054347926	     3.0792494873748E-13	
     55.186717301784	     3.1864143390705E-13	
     55.217414367572	     3.2973138852527E-13	
     55.248043786742	     3.4110096155709E-13	
     55.278809133956	     3.5251614534587E-13	
      55.30950672199	     3.6431793623798E-13	
     55.340238423114	     3.7651356969945E-13	
     55.371004294224	     3.8911763998121E-13	
     55.401702009702	     4.0214493080584E-13	
     55.432536277976	     4.1560575361217E-13	
      55.46330227705	     4.2951875410695E-13	
     55.494102446393	      4.438979956769E-13	
     55.525039681584	     4.5875603245813E-13	
     55.555805523846	     4.7411458838887E-13	
     55.586708546254	     4.8998633109827E-13	
     55.617645967526	     5.0638698711276E-13	
     55.648514548239	     5.2333975722966E-13	
     55.679417412978	     5.4085912725726E-13	
     55.710354618891	      5.589649627546E-13	
     55.741326223254	      5.776770344274E-13	
     55.772332283467	     5.9701380712682E-13	
      55.80326898485	      6.170007926293E-13	
     55.834344013767	     6.3765416253449E-13	
     55.865349567862	      6.590003890349E-13	
     55.896389576683	     6.8106128474086E-13	
     55.927464097695	     7.0385963965129E-13	
     55.958573188487	     7.2742174339811E-13	
     55.989612339689	     7.5177416462634E-13	
     56.020790626839	     7.7693863004701E-13	
     56.051898857245	     8.0294797452954E-13	
      56.08304165552	     8.2982638643055E-13	
     56.114219079314	     8.5760551810995E-13	
     56.145326036879	     8.8631660562036E-13	
     56.176572768106	     9.1598567906067E-13	
     56.207748914908	     9.4665070725673E-13	
      56.23906518493	     9.7833696115749E-13	
     56.270310752067	     1.0110885227217E-12	
     56.301591057625	     1.0449349667191E-12	
     56.332800306663	      1.079918065111E-12	
     56.364150145238	     1.1160673721782E-12	
     56.395428807916	     1.1534296897167E-12	
     56.426848411614	     1.1920407545746E-12	
     56.458196719768	     1.2319416416382E-12	
     56.489579878802	     1.2731801762167E-12	
     56.520891385909	     1.3158038036664E-12	
     56.552344302651	     1.3598568289401E-12	
     56.583725446896	     1.4053796247586E-12	
