# TLUSTY OSTAR2002+BSTAR2006
# teff = 50000 K (value for the effective temperature for the model. Temperatures are given in K)
# logg = 4.5 log(cm/s2) (value for Log(G) for the model.)
# z = 1  (Z/Z0)
#
#         WAVELENGTH	#                   FLUX	
#         (ANGSTROM)	#          (ERG/CM2/S/A)	
####################	########################	
     44.882873414538	     3.8741387137579E-17	
     44.907816823029	     3.9786496970334E-17	
     44.932787971259	     4.1239911701824E-17	
     44.957786905528	     4.2746496822509E-17	
     44.982746177196	     4.4308247602535E-17	
     45.007733177599	     4.5927080316027E-17	
     45.032747952971	     4.7604839389931E-17	
      45.05779054965	     4.9344102643326E-17	
     45.082793218463	     5.1146848151355E-17	
      45.10789152167	     5.3015329980105E-17	
      45.13294983914	     5.4952035931131E-17	
     45.158036012858	     5.6959715350323E-17	
     45.183081991723	     5.9040697547145E-17	
     45.208223941659	     6.1197695794176E-17	
     45.233325638345	     6.3433384741112E-17	
     45.258455225762	     6.5750807229198E-17	
     45.283612750422	     6.8152985130572E-17	
     45.308798258938	     7.0642742425076E-17	
     45.333943244952	     7.3223660928663E-17	
     45.359184785076	     7.5898650341292E-17	
     45.384385743676	     7.8671490840791E-17	
     45.409614720477	     8.1545457133063E-17	
     45.434802903778	     8.4524832392682E-17	
     45.460087980675	     8.7612757026739E-17	
     45.485332204516	     9.0813561608219E-17	
     45.510604480433	     9.4131326430072E-17	
     45.535904855209	     9.7570185728506E-17	
     45.561233375735	      1.011346169739E-16	
     45.586520769912	      1.048295764058E-16	
     45.611836249694	     1.0865938421057E-16	
     45.637179861898	     1.1262917761098E-16	
     45.662551653443	     1.1674370808167E-16	
     45.687951671355	     1.2100860674667E-16	
     45.713310257544	     1.2542968024071E-16	
     45.738766792027	     1.3001175602834E-16	
     45.764181834002	     1.3476152580121E-16	
      45.78955519781	     1.3968509824736E-16	
     45.815026728651	     1.4478820983371E-16	
     45.840456520044	     1.5007791519751E-16	
     45.865984728293	     1.5556036347783E-16	
     45.891471135712	     1.6124350735565E-16	
     45.916985883005	     1.6713423015226E-16	
     45.942458611669	      1.732405486408E-16	
     45.968030102304	     1.7956851409302E-16	
     45.993559512376	     1.8612947465116E-16	
     46.019117294904	     1.9292991632869E-16	
     46.044703497212	     1.9997788840042E-16	
      46.07024736872	     2.0728381361599E-16	
     46.095890474148	     2.1485618071513E-16	
     46.121491186235	     2.2270598217873E-16	
     46.147120350345	     2.3084223029795E-16	
     46.172778013935	     2.3927629545007E-16	
     46.198393032158	     2.4801672827828E-16	
     46.224107758229	     2.5707859233122E-16	
      46.24977977578	     2.6646936633802E-16	
     46.275480324708	     2.7620473400164E-16	
     46.301209452603	     2.8629579462276E-16	
      46.32689561815	     2.9675626665795E-16	
     46.352681967456	     3.0759709005893E-16	
     46.378425290646	     3.1883456636885E-16	
     46.404197224346	     3.3048214433157E-16	
     46.429997816279	     3.4255586898742E-16	
     46.455755126455	      3.550710640928E-16	
     46.481613098284	     3.6804146839609E-16	
     46.507427723964	     3.8148863301655E-16	
     46.533271039062	      3.954254579038E-16	
     46.559143091431	     4.0987108937123E-16	
     46.584971540186	     4.2484590326726E-16	
     46.610901130475	     4.4036627273507E-16	
     46.636787052132	     4.5639660601853E-16	
     46.662701741879	     4.7271233774562E-16	
     46.688645247699	     4.8962178364125E-16	
     46.714617617682	     5.0713668181702E-16	
     46.740546026876	     5.2527897127222E-16	
     46.766503234583	     5.4406905932398E-16	
     46.792489288808	     5.6353221486798E-16	
     46.818504237665	     5.8369014964478E-16	
     46.844548129374	     6.0456962137187E-16	
     46.870547733178	        6.2619578897E-16	
     46.896576213546	     6.4859677780084E-16	
     46.922633618612	     6.7179897257267E-16	
     46.948719996617	     6.9583034094122E-16	
     46.974835395912	     7.2072042418999E-16	
     47.000906177686	     7.4650266863058E-16	
     47.027079682944	     7.7320513857492E-16	
     47.053208503692	     8.0086340995759E-16	
     47.079366375567	     8.2951260566528E-16	
     47.105479331519	     8.5918761830761E-16	
     47.131695368778	     8.8992027157473E-16	
     47.157866422534	     9.2175471330628E-16	
     47.184066556704	     9.5472840479898E-16	
     47.210295819784	     9.8888131620983E-16	
     47.236554260378	     1.0242532267989E-15	
     47.262767416563	      1.060895502825E-15	
     47.289009682029	     1.0988460971865E-15	
     47.315355781599	     1.1381507015703E-15	
     47.341581734975	     1.1788674631259E-15	
     47.367911619808	     1.2210377840969E-15	
     47.394270808632	     1.2647138344696E-15	
     47.420584341323	     1.3099564791777E-15	
     47.446927109052	     1.3568166526356E-15	
     47.473299160566	     1.4053522294759E-15	
     47.499700544723	     1.4556224780705E-15	
     47.526055967381	     1.5076961676992E-15	
     47.552516079912	     1.5616259295806E-15	
     47.578930161325	     1.6174882242092E-15	
     47.605373603601	     1.6753513348955E-15	
     47.631846455723	     1.7352763547427E-15	
     47.658273003882	       1.79735965206E-15	
      47.68472889166	      1.861654674989E-15	
      47.71129009926	     1.9282468684574E-15	
     47.737804897468	      1.997222903193E-15	
     47.764273082132	     2.0686742218147E-15	
     47.790846818354	     2.1426617275944E-15	
     47.817373870131	     2.2193217798595E-15	
       47.8440067411	     2.2986969871911E-15	
     47.870592856595	      2.380923771255E-15	
     47.897132011203	     2.4661079511796E-15	
      47.92377721757	     2.5543221688926E-15	
     47.950452085929	     2.6456944876965E-15	
     47.977079885928	     2.7403371999289E-15	
     48.003737276208	      2.838361544277E-15	
     48.030424306121	     2.9398863575646E-15	
     48.057063988997	     3.0450559838567E-15	
     48.083810360894	     3.1539851952366E-15	
     48.110509313421	     3.2668109251667E-15	
      48.13723793207	      3.383672429842E-15	
     48.163996266313	      3.504718020868E-15	
     48.190784365732	     3.6300790818228E-15	
     48.217524728589	     3.7599308657984E-15	
     48.244372421162	      3.894428191114E-15	
     48.271172304081	     4.0337411037392E-15	
     48.298001978367	     4.1780345414772E-15	
     48.324783596886	     4.3274986455577E-15	
     48.351672916415	     4.4822974830256E-15	
     48.378514106452	     4.6426500512882E-15	
     48.405385113436	     4.8087160179958E-15	
     48.432285987079	     4.9807484696232E-15	
     48.459216777203	     5.1589030453399E-15	
     48.486177533741	     5.3434467971677E-15	
     48.513089801638	     5.5348235014402E-15	
     48.540031961452	     5.7293791526545E-15	
     48.567004063012	     5.9293700425132E-15	
      48.59400615626	     6.1363404281812E-15	
     48.621038291247	     6.3505208760933E-15	
     48.648021575729	     6.5721940122966E-15	
     48.675113856845	     6.8015938842606E-15	
     48.702157212178	     7.0390068299173E-15	
     48.729230634195	     7.2847008942659E-15	
     48.756254879001	     7.5390044424263E-15	
     48.783388496724	      7.802140035924E-15	
     48.810472861313	      8.074490330924E-15	
     48.837587316895	     8.3563304075011E-15	
     48.864731913645	     8.6480215403179E-15	
      48.89190670185	     8.9498760080378E-15	
     48.919031907499	     9.2622977837888E-15	
     48.946267141012	     9.5855837236882E-15	
     48.973452715253	     9.9201813770999E-15	
     49.000668504919	     1.0266460423536E-14	
     49.027914560414	     1.0624803189421E-14	
     49.055110663128	      1.099568877107E-14	
     49.082417312547	     1.1379487476284E-14	
     49.109673931739	     1.1776695912262E-14	
     49.136960840234	     1.2187777485374E-14	
     49.164278088547	      1.261319804064E-14	
     49.191625727309	     1.3053452328051E-14	
     49.218923001149	     1.3509123741445E-14	
     49.246250587257	     1.3980676467404E-14	
     49.273689521928	     1.4468643662349E-14	
     49.300996898465	     1.4973714964259E-14	
     49.328415724939	       1.54964158804E-14	
      49.35586506643	      1.603731980725E-14	
     49.383263627274	     1.6597128296952E-14	
      49.41069262414	     1.7176496054209E-14	
     49.438152107771	     1.7775971290063E-14	
     49.465642129023	     1.8396407483219E-14	
     49.493162738867	     1.9038500289267E-14	
      49.52063218856	     1.9703160740691E-14	
     49.548132147101	     2.0390863381139E-14	
     49.575662665346	     2.1102600673138E-14	
     49.603223794262	     2.1839207289405E-14	
     49.630815584932	     2.2601513912793E-14	
     49.658355833099	     2.3390577503603E-14	
     49.686009009337	     2.4206915440034E-14	
     49.713610562501	     2.5051961690658E-14	
     49.741242799119	     2.5926300056792E-14	
     49.768823148563	     2.6831438117868E-14	
     49.796516813807	     2.7767853077571E-14	
     49.824158510622	     2.8737285990976E-14	
      49.85191380956	     2.9740191869885E-14	
     49.879617058659	     3.0778313317634E-14	
     49.907268032742	      3.185274812923E-14	
     49.935032855013	     3.2964521067581E-14	
      49.96274532025	     3.4115226380618E-14	
       49.9905719212	     3.5306012228342E-14	
     50.018346082938	     3.6538324759618E-14	
     50.046151123813	     3.7813710472552E-14	
     50.073903457491	     3.9133802197147E-14	
     50.101770318216	     4.0499687952194E-14	
     50.129584388874	     4.1913422238264E-14	
     50.157429358728	     4.3376504668715E-14	
     50.185305279299	     4.4890557791056E-14	
     50.213212202218	     4.6457495199139E-14	
     50.241150179234	     4.8079072135984E-14	
     50.269034971226	     4.9757351368383E-14	
     50.296950733586	     5.1494213613451E-14	
     50.324897517936	     5.3291685516113E-14	
     50.352875376018	     5.5151784036683E-14	
     50.380884359686	     5.7076813309131E-14	
     50.408839760426	     5.9069265134566E-14	
     50.436911056863	     6.1130883372999E-14	
     50.464928685775	     6.3264788387311E-14	
     50.492977459489	     6.5473041636292E-14	
     50.520972291971	     6.7758711114118E-14	
     50.549083416516	      7.012373199752E-14	
     50.577140514523	     7.2559454759143E-14	
     50.605314198034	     7.5021164095829E-14	
     50.633433769533	     7.7566565485622E-14	
     50.661584608495	     8.0198351208078E-14	
     50.689681059539	     8.2919578125646E-14	
     50.717894494652	     8.5732751115723E-14	
      50.74605345566	     8.8641628994641E-14	
     50.774243702176	     9.1649104784618E-14	
     50.802465286368	     9.4758628645723E-14	
     50.830718260522	     9.7973634256622E-14	
     50.858916396221	     1.0129802818081E-13	
     50.887232211512	     1.0473468066329E-13	
      50.91549310127	     1.0828825646399E-13	
      50.94378539858	     1.1196235886514E-13	
     50.972109155828	     1.1576106095314E-13	
     51.000377664063	     1.1968896836834E-13	
     51.028764402201	     1.2374974834733E-13	
     51.057095803437	     1.2794853210075E-13	
     51.085458681594	     1.3228962799416E-13	
     51.113853089158	     1.3677801746638E-13	
     51.142279078733	     1.4141865816057E-13	
      51.17073670304	     1.4621648395815E-13	
     51.199138575884	     1.5117778367417E-13	
     51.227571994662	     1.5630724726407E-13	
     51.256037011961	     1.6161002231974E-13	
     51.284533680485	     1.6709409636345E-13	
     51.313062053053	     1.7276312703015E-13	
     51.341534256522	     1.7862422377706E-13	
     51.370038074415	     1.8468613879576E-13	
     51.398661680974	     1.9095036743903E-13	
     51.427228983866	     1.9743030598241E-13	
     51.455739742063	     2.0412953820572E-13	
     51.484370545666	     2.1105444850148E-13	
      51.51294471412	     2.1821560845366E-13	
     51.541639230398	      2.256192269553E-13	
      51.57027702089	     2.3327306081674E-13	
      51.59885784312	     2.4118905172965E-13	
     51.627559270721	     2.4937171996134E-13	
     51.656292645944	     2.5783222530267E-13	
      51.68496891583	     2.6658038469425E-13	
     51.713677041862	     2.7562560597463E-13	
     51.742417077153	     2.8497810694111E-13	
     51.771189074934	     2.9464665095306E-13	
     51.799993088553	     3.0464276685453E-13	
     51.828739568728	     3.1497901759741E-13	
      51.85751797242	      3.256672091197E-13	
     51.886328352836	     3.3671590610118E-13	
       51.9151707633	     3.4814062003772E-13	
     51.944045257258	     3.5995260056935E-13	
     51.972861786504	     3.7216572800303E-13	
     52.001800507889	     3.8479138857938E-13	
     52.030681171293	     3.9784745811433E-13	
     52.059593931901	      4.113464356209E-13	
     52.088538843251	     4.2530204424457E-13	
        52.117515959	     4.3973210183739E-13	
      52.14643462833	     4.5465176708038E-13	
     52.175385407928	     4.7007861401771E-13	
     52.204368351307	     4.8602745731969E-13	
     52.233383512095	     5.0251856320609E-13	
     52.262430944042	     5.1956796392299E-13	
     52.291510701017	     5.3719574734129E-13	
     52.320531525746	     5.5542246790807E-13	
     52.349584580407	     5.7426759623767E-13	
     52.378669918722	     5.9375231302332E-13	
      52.40778759453	      6.138976976707E-13	
     52.436937661792	     6.3472472844198E-13	
     52.466120174588	     6.5625975695129E-13	
     52.495243265013	       6.78525917599E-13	
     52.524398704903	     7.0154848325401E-13	
     52.553586548187	     7.2535072451101E-13	
     52.582806848916	      7.499612498506E-13	
      52.61205966126	      7.754058094702E-13	
     52.641252605351	     8.0171556408358E-13	
     52.670477964107	     8.2891745977508E-13	
     52.699735791544	     8.5704228861868E-13	
     52.729026141802	     8.8612069554934E-13	
     52.758349069138	     9.1618453204089E-13	
     52.787704627932	     9.4726820075435E-13	
     52.816999820298	     9.7895158340746E-13	
      52.84632754618	     1.0110067144687E-12	
     52.875781119097	     1.0441547783138E-12	
     52.905080815514	     1.0783949124222E-12	
     52.934506467778	     1.1137539405885E-12	
     52.963964871182	     1.1502718955336E-12	
     52.993362405584	     1.1879904932918E-12	
     53.022792592186	     1.2269444896574E-12	
     53.052255485419	     1.2671764033592E-12	
     53.081751139834	     1.3087258757662E-12	
     53.111279610106	     1.3516336926614E-12	
     53.140746754398	     1.3959600665464E-12	
     53.170340915943	     1.4417262801833E-12	
     53.199873651559	     1.4890038833997E-12	
     53.229439212511	     1.5378225372007E-12	
     53.259037653559	     1.5882432429758E-12	
     53.288574308147	     1.6403325443277E-12	
     53.318238568659	     1.6941128925588E-12	
      53.34784094185	      1.749669618718E-12	
     53.377476203872	     1.8070303577161E-12	
     53.407144409567	     1.8662812380237E-12	
     53.436845613897	     1.9274815979419E-12	
     53.466484516979	     1.9906844119339E-12	
     53.496251777751	      2.055960854323E-12	
     53.525956635386	     2.1233706675118E-12	
     53.555694499774	     2.1929912416177E-12	
      53.58546542596	     2.2649066672026E-12	
      53.61526946911	     2.3391613187764E-12	
     53.645010691694	     2.4158734473262E-12	
     53.674881027834	      2.495082833924E-12	
     53.704688440483	     2.5768897047914E-12	
     53.734528977584	     2.6613937677359E-12	
     53.764402694385	     2.7486507333433E-12	
     53.794213118725	      2.838791312921E-12	
     53.824153253678	     2.9318634104603E-12	
     53.854029992312	     3.0280073256236E-12	
     53.883939917357	     3.1272929754471E-12	
     53.913883084139	      3.229838955553E-12	
     53.943859548105	     3.3357374053314E-12	
     53.973869364828	     3.4451058803995E-12	
     54.003815308791	     3.5580871107234E-12	
     54.033891889846	     3.6747464690119E-12	
     54.063904493116	     3.7952388529373E-12	
     54.093950455335	     3.9196796744042E-12	
     54.124029832154	     4.0481965498506E-12	
      54.15404485614	     4.1809444329985E-12	
     54.184191120654	     4.3180327974511E-12	
      54.21427292636	     4.4596180832612E-12	
     54.244388152062	     4.6058615327315E-12	
     54.274536853482	     4.7568747122065E-12	
     54.304719086469	      4.912845287017E-12	
     54.334934906996	     5.0739345110648E-12	
     54.365085784025	     5.2403091222776E-12	
     54.395270141544	     5.4121493267777E-12	
      54.42548803535	     5.5896140340809E-12	
     54.455739521366	     5.7728867923925E-12	
     54.486024655637	     5.9621756485186E-12	
     54.516343494335	     6.1576623046081E-12	
     54.546596847207	     6.3595760497928E-12	
     54.576883796375	      6.568113090438E-12	
      54.60720439783	     6.7834776293629E-12	
     54.637558707693	     7.0059107441811E-12	
     54.667946782205	     7.2356145444519E-12	
     54.698368677737	     7.4728657082237E-12	
     54.728724540371	     7.7179048882306E-12	
       54.7591141148	     7.9709800436108E-12	
     54.789537457212	     8.2323391142304E-12	
     54.819994623921	     8.5022789882026E-12	
     54.850485671368	     8.7810575717501E-12	
     54.881010656117	     9.0689690478431E-12	
     54.911469056114	     9.3663529928553E-12	
     54.941961283087	     9.6734687030157E-12	
     54.972487393417	       9.99066853448E-12	
     55.003047443615	     1.0318253354591E-11	
     55.033641490315	     1.0656572330476E-11	
     55.064168451369	     1.1006013385497E-11	
     55.094830548812	     1.1366867650909E-11	
      55.12542544917	     1.1739598686942E-11	
     55.156054347926	     1.2124533246986E-11	
     55.186717301784	     1.2522036745709E-11	
     55.217414367572	     1.2932670527422E-11	
     55.248043786742	     1.3352784423602E-11	
     55.278809133956	     1.3773987641422E-11	
      55.30950672199	     1.4208565764473E-11	
     55.340238423114	     1.4656914848401E-11	
     55.371004294224	      1.511935515452E-11	
     55.401702009702	     1.5596385743105E-11	
     55.432536277976	     1.6088455067924E-11	
      55.46330227705	     1.6595994674999E-11	
     55.494102446393	     1.7119626805764E-11	
     55.525039681584	     1.7659718340804E-11	
     55.555805523846	     1.8216895715481E-11	
     55.586708546254	     1.8791634613118E-11	
     55.617645967526	     1.9384547404788E-11	
     55.648514548239	     1.9996130987666E-11	
     55.679417412978	     2.0626979497659E-11	
     55.710354618891	     2.1277753592019E-11	
     55.741326223254	     2.1949110768018E-11	
     55.772332283467	     2.2641584253834E-11	
      55.80326898485	     2.3355912593531E-11	
     55.834344013767	     2.4092814818616E-11	
     55.865349567862	     2.4852991588362E-11	
     55.896389576683	     2.5637118571001E-11	
     55.927464097695	     2.6445954725263E-11	
     55.958573188487	     2.7280255356426E-11	
     55.989612339689	      2.814099740936E-11	
     56.020790626839	     2.9028721647409E-11	
     56.051898857245	     2.9944625680788E-11	
      56.08304165552	     3.0889464048836E-11	
     56.114219079314	     3.1863972614936E-11	
     56.145326036879	     3.2869365277531E-11	
     56.176572768106	     3.3906365967716E-11	
     56.207748914908	     3.4976186674335E-11	
      56.23906518493	     3.6079526203388E-11	
     56.270310752067	      3.721784155397E-11	
     56.301591057625	     3.8392067655495E-11	
     56.332800306663	     3.9603414278943E-11	
     56.364150145238	     4.0852881501861E-11	
     56.395428807916	      4.214182195674E-11	
     56.426848411614	     4.3471323353921E-11	
     56.458196719768	     4.4842864857816E-11	
     56.489579878802	     4.6257675548546E-11	
     56.520891385909	     4.7717198398675E-11	
     56.552344302651	     4.9222571851511E-11	
     56.583725446896	     5.0775647262052E-11	
