# TLUSTY OSTAR2002+BSTAR2006
# teff = 52500 K (value for the effective temperature for the model. Temperatures are given in K)
# logg = 4.75 log(cm/s2) (value for Log(G) for the model.)
# z = 1  (Z/Z0)
#
#         WAVELENGTH	#                   FLUX	
#         (ANGSTROM)	#          (ERG/CM2/S/A)	
####################	########################	
     44.882873414538	     2.4189055412773E-15	
     44.907816823029	     2.4790788144391E-15	
     44.932787971259	     2.5626437206662E-15	
     44.957786905528	     2.6490190842877E-15	
     44.982746177196	     2.7383149773883E-15	
     45.007733177599	     2.8306065167888E-15	
     45.032747952971	     2.9260132532952E-15	
      45.05779054965	     3.0246356152532E-15	
     45.082793218463	     3.1266014873578E-15	
      45.10789152167	     3.2319917863374E-15	
      45.13294983914	     3.3409245837602E-15	
     45.158036012858	     3.4535443712798E-15	
     45.183081991723	     3.5699597195057E-15	
     45.208223941659	     3.6902836732401E-15	
     45.233325638345	     3.8146717048736E-15	
     45.258455225762	     3.9432460087925E-15	
     45.283612750422	     4.0761756458442E-15	
     45.308798258938	     4.2135554717136E-15	
     45.333943244952	     4.3555846965487E-15	
     45.359184785076	     4.5024042734225E-15	
     45.384385743676	     4.6541705005045E-15	
     45.409614720477	     4.8110356293678E-15	
     45.434802903778	     4.9732158649629E-15	
     45.460087980675	     5.1408452938653E-15	
     45.485332204516	     5.3141175445045E-15	
     45.510604480433	     5.4932524912562E-15	
     45.535904855209	     5.6784112988039E-15	
     45.561233375735	     5.8698087925662E-15	
     45.586520769912	      6.067659096966E-15	
     45.611836249694	      6.272194076414E-15	
     45.637179861898	     6.4836074000588E-15	
     45.662551653443	     6.7021460028966E-15	
     45.687951671355	     6.9280556420867E-15	
     45.713310257544	     7.1615847111864E-15	
     45.738766792027	     7.4029697603624E-15	
     45.764181834002	     7.6524974439428E-15	
      45.78955519781	      7.910465071235E-15	
     45.815026728651	      8.177082825127E-15	
     45.840456520044	     8.4527280707906E-15	
     45.865984728293	     8.7376228612212E-15	
     45.891471135712	     9.0321450528991E-15	
     45.916985883005	     9.3365746748749E-15	
     45.942458611669	     9.6513171088549E-15	
     45.968030102304	     9.9765990779497E-15	
     45.993559512376	     1.0312888971661E-14	
     46.019117294904	     1.0660510153441E-14	
     46.044703497212	     1.1019849410285E-14	
      46.07024736872	     1.1391308938965E-14	
     46.095890474148	     1.1775256253221E-14	
     46.121491186235	     1.2172179199483E-14	
     46.147120350345	     1.2582457435194E-14	
     46.172778013935	     1.3006574319241E-14	
     46.198393032158	     1.3444999390044E-14	
     46.224107758229	     1.3898165385624E-14	
      46.24977977578	     1.4366650825547E-14	
     46.275480324708	     1.4850906175762E-14	
     46.301209452603	     1.5351473695597E-14	
      46.32689561815	     1.5868959647907E-14	
     46.352681967456	     1.6403822174332E-14	
     46.378425290646	     1.6956765588237E-14	
     46.404197224346	     1.7528325061186E-14	
     46.429997816279	     1.8119099479313E-14	
     46.455755126455	     1.8729882546681E-14	
     46.481613098284	     1.9361187697423E-14	
     46.507427723964	     2.0013757665939E-14	
     46.533271039062	     2.0688504069983E-14	
     46.559143091431	      2.138569686602E-14	
     46.584971540186	     2.2106714826964E-14	
     46.610901130475	     2.2851859870368E-14	
     46.636787052132	     2.3620494193827E-14	
     46.662701741879	     2.4404508031629E-14	
     46.688645247699	     2.5215252249618E-14	
     46.714617617682	     2.6052805882162E-14	
     46.740546026876	     2.6918365886625E-14	
     46.766503234583	     2.7812617254157E-14	
     46.792489288808	     2.8736491858921E-14	
     46.818504237665	     2.9691088968945E-14	
     46.844548129374	     3.0677502620097E-14	
     46.870547733178	     3.1696577762026E-14	
     46.896576213546	     3.2749649312648E-14	
     46.922633618612	     3.3837624889658E-14	
     46.948719996617	     3.4961749515185E-14	
     46.974835395912	     3.6123091543821E-14	
     47.000906177686	     3.7323172258339E-14	
     47.027079682944	     3.8562988778465E-14	
     47.053208503692	     3.9844000691001E-14	
     47.079366375567	      4.116764671611E-14	
     47.105479331519	     4.2535269317395E-14	
     47.131695368778	     4.3948317369916E-14	
     47.157866422534	      4.540825839107E-14	
     47.184066556704	      4.691682554567E-14	
     47.210295819784	     4.8475369747098E-14	
     47.236554260378	     5.0085741856449E-14	
     47.262767416563	     5.1749609784675E-14	
     47.289009682029	     5.3468824226484E-14	
     47.315355781599	     5.5245036375002E-14	
     47.341581734975	     5.7080418112019E-14	
     47.367911619808	     5.8976590738703E-14	
     47.394270808632	     6.0935695149011E-14	
     47.420584341323	     6.2960055100517E-14	
     47.446927109052	     6.5051599262497E-14	
     47.473299160566	     6.7212599680878E-14	
     47.499700544723	     6.9445484495194E-14	
     47.526055967381	     7.1752564159077E-14	
     47.552516079912	     7.4135964020691E-14	
     47.578930161325	     7.6598874041816E-14	
     47.605373603601	     7.9143615013684E-14	
     47.631846455723	     8.1772722977999E-14	
     47.658273003882	     8.4489322101076E-14	
      47.68472889166	     8.7296169442497E-14	
      47.71129009926	     9.0195971955909E-14	
     47.737804897468	      9.319227381605E-14	
     47.764273082132	     9.6288399757989E-14	
     47.790846818354	     9.9487026350726E-14	
     47.817373870131	     1.0279220716111E-13	
       47.8440067411	     1.0620670985159E-13	
     47.870592856595	     1.0973492682606E-13	
     47.897132011203	     1.1338060049731E-13	
      47.92377721757	     1.1714703681599E-13	
     47.950452085929	      1.210384214421E-13	
     47.977079885928	      1.250594623813E-13	
     48.003737276208	     1.2921407349751E-13	
     48.030424306121	     1.3350652263144E-13	
     48.057063988997	     1.3794198870901E-13	
     48.083810360894	     1.4252415324966E-13	
     48.110509313421	     1.4725909688559E-13	
      48.13723793207	     1.5215104659937E-13	
     48.163996266313	     1.5720562350277E-13	
     48.190784365732	     1.6242858411261E-13	
     48.217524728589	     1.6782425282529E-13	
     48.244372421162	     1.7339808553646E-13	
     48.271172304081	     1.7915863779969E-13	
     48.298001978367	     1.8511117778143E-13	
     48.324783596886	     1.9126048890927E-13	
     48.351672916415	     1.9761433911301E-13	
     48.378514106452	     2.0417970265085E-13	
     48.405385113436	     2.1096165604713E-13	
     48.432285987079	      2.179706828582E-13	
     48.459216777203	     2.2521080044373E-13	
     48.486177533741	     2.3269241560918E-13	
     48.513089801638	     2.4043146642069E-13	
     48.540031961452	     2.4830640773362E-13	
     48.567004063012	     2.5639660090635E-13	
      48.59400615626	     2.6474754991016E-13	
     48.621038291247	     2.7337268164981E-13	
     48.648021575729	     2.8227831718508E-13	
     48.675113856845	     2.9147280253044E-13	
     48.702157212178	     3.0096810172934E-13	
     48.729230634195	     3.1077335281902E-13	
     48.756254879001	     3.2089802076331E-13	
     48.783388496724	     3.3135159876953E-13	
     48.810472861313	     3.4214612107546E-13	
     48.837587316895	     3.5329198876971E-13	
     48.864731913645	     3.6480059192016E-13	
      48.89190670185	     3.7668484187981E-13	
     48.919031907499	     3.8895570922173E-13	
     48.946267141012	     4.0162664094366E-13	
     48.973452715253	     4.1470980581241E-13	
     49.000668504919	     4.2821975256565E-13	
     49.027914560414	     4.4216908968661E-13	
     49.055110663128	     4.5657498986595E-13	
     49.082417312547	     4.7144699030732E-13	
     49.109673931739	     4.8680523354256E-13	
     49.136960840234	     5.0266368986874E-13	
     49.164278088547	     5.1903930800633E-13	
     49.191625727309	     5.3594739864411E-13	
     49.218923001149	     5.5340657058703E-13	
     49.246250587257	     5.7143494469453E-13	
     49.273689521928	     5.9004875853468E-13	
     49.300996898465	     6.0927192071216E-13	
     49.328415724939	     6.2911971143787E-13	
      49.35586506643	     6.4961352192431E-13	
     49.383263627274	     6.7077646457224E-13	
      49.41069262414	     6.9262882101715E-13	
     49.438152107771	     7.1519129482049E-13	
     49.465642129023	     7.3848910847446E-13	
     49.493162738867	      7.625458260974E-13	
      49.52063218856	     7.8738903588733E-13	
     49.548132147101	     8.1303964135802E-13	
     49.575662665346	     8.3952546875347E-13	
     49.603223794262	      8.668742112825E-13	
     49.630815584932	      8.951134293081E-13	
     49.658355833099	     9.2427361251296E-13	
     49.686009009337	     9.5438061175137E-13	
     49.713610562501	     9.8547237985727E-13	
     49.741242799119	     1.0175743881997E-12	
     49.768823148563	     1.0507261252477E-12	
     49.796516813807	     1.0849535188099E-12	
     49.824158510622	     1.1202993359376E-12	
      49.85191380956	     1.1567917477044E-12	
     49.879617058659	      1.194476685689E-12	
     49.907268032742	     1.2333912007868E-12	
     49.935032855013	     1.2735697507154E-12	
      49.96274532025	     1.3150600064385E-12	
       49.9905719212	     1.3578969922327E-12	
     50.018346082938	     1.4021315597066E-12	
     50.046151123813	      1.447808588576E-12	
     50.073903457491	     1.4949760908147E-12	
     50.101770318216	     1.5436685543651E-12	
     50.129584388874	     1.5939612277869E-12	
     50.157429358728	     1.6458914482446E-12	
     50.185305279299	     1.6995133069109E-12	
     50.213212202218	     1.7548656939828E-12	
     50.241150179234	     1.8120320817128E-12	
     50.269034971226	     1.8710720089554E-12	
     50.296950733586	     1.9320177309192E-12	
     50.324897517936	     1.9949666914038E-12	
     50.352875376018	     2.0599564440693E-12	
     50.380884359686	     2.1270540367604E-12	
     50.408839760426	     2.1963484071188E-12	
     50.436911056863	     2.2678913824387E-12	
     50.464928685775	     2.3417788224745E-12	
     50.492977459489	     2.4180542534028E-12	
     50.520972291971	     2.4968357892793E-12	
     50.549083416516	     2.5781718307666E-12	
     50.577140514523	     2.6618054129931E-12	
     50.605314198034	     2.7463867839964E-12	
     50.633433769533	     2.8336791804043E-12	
     50.661584608495	     2.9237228471247E-12	
     50.689681059539	      3.016650270734E-12	
     50.717894494652	     3.1125191512222E-12	
      50.74605345566	     3.2114422644931E-12	
     50.774243702176	     3.3135010199328E-12	
     50.802465286368	     3.4188011826858E-12	
     50.830718260522	     3.5274625919242E-12	
     50.858916396221	      3.639573171446E-12	
     50.887232211512	     3.7552274672896E-12	
      50.91549310127	     3.8745688774291E-12	
      50.94378539858	     3.9977173154785E-12	
     50.972109155828	     4.1247609136284E-12	
     51.000377664063	     4.2558597830625E-12	
     51.028764402201	     4.3911014346055E-12	
     51.057095803437	     4.5306596692072E-12	
     51.085458681594	     4.6746492688278E-12	
     51.113853089158	     4.8232132907628E-12	
     51.142279078733	     4.9764941047952E-12	
      51.17073670304	     5.1346333941751E-12	
     51.199138575884	      5.297818995132E-12	
     51.227571994662	     5.4662029114767E-12	
     51.256037011961	     5.6399102979132E-12	
     51.284533680485	     5.8191516351997E-12	
     51.313062053053	     6.0040791747455E-12	
     51.341534256522	     6.1949085203341E-12	
     51.370038074415	     6.3917847281248E-12	
     51.398661680974	      6.594906390309E-12	
     51.427228983866	     6.8044954218966E-12	
     51.455739742063	     7.0207590328693E-12	
     51.484370545666	     7.2438822548145E-12	
      51.51294471412	     7.4741028690328E-12	
     51.541639230398	     7.7116148906656E-12	
      51.57027702089	     7.9566997922308E-12	
      51.59885784312	     8.2095883412578E-12	
     51.627559270721	     8.4704944248497E-12	
     51.656292645944	      8.739671266161E-12	
      51.68496891583	     9.0174311180416E-12	
     51.713677041862	     9.3040106243843E-12	
     51.742417077153	     9.5997024658298E-12	
     51.771189074934	     9.9047838637343E-12	
     51.799993088553	     1.0219544740568E-11	
     51.828739568728	     1.0544352151315E-11	
      51.85751797242	     1.0879458981305E-11	
     51.886328352836	     1.1225220901013E-11	
       51.9151707633	     1.1581963924986E-11	
     51.944045257258	     1.1950026456726E-11	
     51.972861786504	     1.2329829857612E-11	
     52.001800507889	     1.2721652871725E-11	
     52.030681171293	     1.3125971414387E-11	
     52.059593931901	     1.3543116040335E-11	
     52.088538843251	     1.3973458251026E-11	
        52.117515959	     1.4417561920623E-11	
      52.14643462833	     1.4875804490518E-11	
     52.175385407928	     1.5348641543302E-11	
     52.204368351307	     1.5836436582173E-11	
     52.233383512095	     1.6339689406872E-11	
     52.262430944042	     1.6858897421344E-11	
     52.291510701017	     1.7394693411447E-11	
     52.320531525746	     1.7947494563707E-11	
     52.349584580407	     1.8518007460643E-11	
     52.378669918722	     1.9106444603974E-11	
      52.40778759453	     1.9713703163337E-11	
     52.436937661792	     2.0340128066135E-11	
     52.466120174588	      2.098660992119E-11	
     52.495243265013	     2.1653564156575E-11	
     52.524398704903	     2.2341667357027E-11	
     52.553586548187	     2.3051800106473E-11	
     52.582806848916	     2.3784293820954E-11	
      52.61205966126	     2.4540158689162E-11	
     52.641252605351	     2.5320081216912E-11	
     52.670477964107	     2.6124844486505E-11	
     52.699735791544	     2.6955175240233E-11	
     52.729026141802	     2.7811796702994E-11	
     52.758349069138	     2.8695563934174E-11	
     52.787704627932	      2.960759827657E-11	
     52.816999820298	     3.0536293997151E-11	
      52.84632754618	     3.1475554352382E-11	
     52.875781119097	     3.2444897470693E-11	
     52.905080815514	     3.3444291533711E-11	
     52.934506467778	     3.4474363819588E-11	
     52.963964871182	     3.5536060439619E-11	
     52.993362405584	     3.6630740942129E-11	
     53.022792592186	     3.7758972152381E-11	
     53.052255485419	      3.892197460355E-11	
     53.081751139834	     4.0120695608411E-11	
     53.111279610106	     4.1356344970065E-11	
     53.140746754398	     4.2630277823499E-11	
     53.170340915943	     4.3943128345196E-11	
     53.199873651559	     4.5296663374429E-11	
     53.229439212511	     4.6691785932886E-11	
     53.259037653559	     4.8129810644048E-11	
     53.288574308147	     4.9612354839488E-11	
     53.318238568659	      5.114024031333E-11	
      53.34784094185	     5.2715518463692E-11	
     53.377476203872	     5.4339169254052E-11	
     53.407144409567	     5.6012739569411E-11	
     53.436845613897	     5.7737900786141E-11	
     53.466484516979	     5.9516396768062E-11	
     53.496251777751	     6.1349333753651E-11	
     53.525956635386	     6.3238923130574E-11	
     53.555694499774	     6.5186724419847E-11	
      53.58546542596	     6.7194500901229E-11	
      53.61526946911	     6.9264007336548E-11	
     53.645010691694	     7.1397507318242E-11	
     53.674881027834	     7.3596365478568E-11	
     53.704688440483	     7.5863221198148E-11	
     53.734528977584	     7.8199798875377E-11	
     53.764402694385	     8.0608329496878E-11	
     53.794213118725	     8.3091201326751E-11	
     53.824153253678	      8.565029738043E-11	
     53.854029992312	     8.8288422388411E-11	
     53.883939917357	     9.1007856028269E-11	
     53.913883084139	     9.3810904590647E-11	
     53.943859548105	     9.6700122095544E-11	
     53.973869364828	     9.9678438188414E-11	
     54.003815308791	     1.0274875112455E-10	
     54.033891889846	     1.0591310600751E-10	
     54.063904493116	     1.0917527372806E-10	
     54.093950455335	     1.1253788887255E-10	
     54.124029832154	     1.1600394171386E-10	
      54.15404485614	      1.195772254385E-10	
     54.184191120654	     1.2325984965684E-10	
      54.21427292636	     1.2705640746607E-10	
     54.244388152062	     1.3096978093385E-10	
     54.274536853482	     1.3500377964988E-10	
     54.304719086469	     1.3916142841806E-10	
     54.334934906996	     1.4344739606433E-10	
     54.365085784025	     1.4786559083519E-10	
     54.395270141544	     1.5242013876691E-10	
      54.42548803535	     1.5711564795988E-10	
     54.455739521366	     1.6195416363736E-10	
     54.486024655637	     1.6694279627291E-10	
     54.516343494335	     1.7208355270332E-10	
     54.546596847207	     1.7738413927303E-10	
     54.576883796375	     1.8284844909594E-10	
      54.60720439783	     1.8847969690361E-10	
     54.637558707693	     1.9428486713866E-10	
     54.667946782205	     2.0026839011742E-10	
     54.698368677737	     2.0643719274513E-10	
     54.728724540371	     2.1279517266636E-10	
       54.7591141148	     2.1934973178353E-10	
     54.789537457212	     2.2610519915264E-10	
     54.819994623921	     2.3306964304966E-10	
     54.850485671368	      2.402473369722E-10	
     54.881010656117	     2.4764753615177E-10	
     54.911469056114	     2.5527538966725E-10	
     54.941961283087	     2.6313795764422E-10	
     54.972487393417	     2.7124189479338E-10	
     55.003047443615	     2.7959631402379E-10	
     55.033641490315	     2.8820779717838E-10	
     55.064168451369	     2.9708522771846E-10	
     55.094830548812	     3.0623421164104E-10	
      55.12542544917	     3.1566716425713E-10	
     55.156054347926	     3.2538943013975E-10	
     55.186717301784	     3.3541112423527E-10	
     55.217414367572	      3.457423131428E-10	
     55.248043786742	     3.5629929290856E-10	
     55.278809133956	     3.6687894617851E-10	
      55.30950672199	     3.7777566235966E-10	
     55.340238423114	     3.8899562718721E-10	
     55.371004294224	      4.005487601316E-10	
     55.401702009702	     4.1244645718457E-10	
     55.432536277976	     4.2469553946488E-10	
      55.46330227705	     4.3731010541547E-10	
     55.494102446393	     4.5029958251992E-10	
     55.525039681584	     4.6367193027817E-10	
     55.555805523846	     4.7744437220296E-10	
     55.586708546254	     4.9162376834347E-10	
     55.617645967526	     5.0622500875025E-10	
     55.648514548239	     5.2126070461312E-10	
     55.679417412978	     5.3674330698917E-10	
     55.710354618891	     5.5268459394078E-10	
     55.741326223254	     5.6909992342827E-10	
     55.772332283467	     5.8600094635921E-10	
      55.80326898485	     6.0340755157092E-10	
     55.834344013767	     6.2132683038751E-10	
     55.865349567862	     6.3978204910036E-10	
     55.896389576683	     6.5878355099312E-10	
     55.927464097695	     6.7834988567056E-10	
     55.958573188487	     6.9849590461677E-10	
     55.989612339689	     7.1924388017539E-10	
     56.020790626839	     7.4060441120737E-10	
     56.051898857245	     7.6260116799497E-10	
      56.08304165552	     7.8525079194281E-10	
     56.114219079314	     8.0857251771277E-10	
     56.145326036879	     8.3258980047132E-10	
     56.176572768106	     8.5731673579277E-10	
     56.207748914908	     8.8278099344562E-10	
      56.23906518493	     9.0899728243301E-10	
     56.270310752067	     9.3599583511241E-10	
     56.301591057625	     9.6379555411381E-10	
     56.332800306663	     9.9242346123715E-10	
     56.364150145238	      1.0218965751056E-9	
     56.395428807916	      1.0522502752084E-9	
     56.426848411614	      1.0834985144467E-9	
     56.458196719768	      1.1156804363364E-9	
     56.489579878802	      1.1488159592709E-9	
     56.520891385909	      1.1829356624924E-9	
     56.552344302651	      1.2180661751923E-9	
     56.583725446896	      1.2542506308756E-9	
